1515244618633,520
1515244618645,527
1515244618646,535
1515244618647,536
1515244618648,526
1515244618650,518
1515244618651,508
1515244618652,504
1515244618654,502
1515244618655,504
1515244618656,510
1515244618657,511
1515244618692,516
1515244618694,510
1515244618695,498
1515244618696,487
1515244618698,478
1515244618700,474
1515244618702,474
1515244618704,478
1515244618706,484
1515244618707,487
1515244618709,487
1515244618710,482
1515244618713,474
1515244618715,463
1515244618717,458
1515244618718,454
1515244618720,460
1515244618721,468
1515244618755,476
1515244618758,482
1515244618759,486
1515244618761,483
1515244618762,474
1515244618762,463
1515244618763,458
1515244618764,455
1515244618765,459
1515244618766,466
1515244618767,478
1515244618767,486
1515244618768,490
1515244618769,486
1515244618770,476
1515244618771,462
1515244618772,446
1515244618773,436
1515244618773,436
1515244618776,439
1515244618777,454
1515244618778,474
1515244618779,494
1515244618780,510
1515244618781,530
1515244618782,556
1515244618783,586
1515244618785,631
1515244618786,690
1515244618787,758
1515244618788,830
1515244618788,902
1515244618789,966
1515244618790,1004
1515244618791,998
1515244618792,998
1515244618793,996
1515244618794,990
1515244618795,964
1515244618796,910
1515244618797,830
1515244618822,734
1515244618824,636
1515244618824,538
1515244618825,462
1515244618826,410
1515244618830,386
1515244618831,386
1515244618832,408
1515244618833,438
1515244618833,470
1515244618834,492
1515244618835,502
1515244618836,500
1515244618837,487
1515244618841,471
1515244618842,460
1515244618843,450
1515244618844,448
1515244618845,454
1515244618846,460
1515244618847,466
1515244618848,470
1515244618850,468
1515244618850,460
1515244618851,450
1515244618852,444
1515244618852,442
1515244618853,446
1515244618854,454
1515244618855,463
1515244618855,476
1515244618858,478
1515244618859,476
1515244618860,470
1515244618885,462
1515244618886,454
1515244618887,450
1515244618887,454
1515244618888,462
1515244618889,471
1515244618890,479
1515244618891,484
1515244618891,484
1515244618892,476
1515244618893,468
1515244618893,460
1515244618894,458
1515244618895,462
1515244618896,470
1515244618896,484
1515244618897,490
1515244618898,494
1515244618898,494
1515244618899,487
1515244618900,479
1515244618901,471
1515244618902,471
1515244618902,476
1515244618903,486
1515244618904,494
1515244618905,503
1515244618905,508
1515244618906,506
1515244618907,500
1515244618908,490
1515244618931,484
1515244618933,484
1515244618934,486
1515244618935,495
1515244618936,506
1515244618936,514
1515244618937,518
1515244618938,518
1515244618938,510
1515244618939,502
1515244618940,495
1515244618941,494
1515244618941,498
1515244618942,508
1515244618943,518
1515244618944,526
1515244618945,527
1515244618945,528
1515244618946,519
1515244618947,511
1515244618950,503
1515244618951,502
1515244618952,506
1515244618975,514
1515244618978,526
1515244618979,532
1515244618980,535
1515244618981,534
1515244618982,526
1515244618983,518
1515244618984,510
1515244618985,510
1515244618986,511
1515244618986,519
1515244618987,530
1515244618988,540
1515244618989,542
1515244618989,540
1515244618990,534
1515244618991,522
1515244618992,514
1515244618992,510
1515244618993,510
1515244618994,516
1515244618994,524
1515244618998,526
1515244619020,526
1515244619022,518
1515244619022,506
1515244619023,494
1515244619024,486
1515244619024,479
1515244619025,482
1515244619026,488
1515244619026,492
1515244619027,495
1515244619028,495
1515244619028,492
1515244619029,482
1515244619030,470
1515244619030,462
1515244619031,458
1515244619032,460
1515244619032,466
1515244619033,474
1515244619034,482
1515244619034,486
1515244619026,482
1515244619027,474
1515244619028,464
1515244619029,455
1515244619029,454
1515244619030,455
1515244619031,462
1515244619032,472
1515244619032,478
1515244619033,482
1515244619034,480
1515244619037,471
1515244619038,463
1515244619039,455
1515244619042,454
1515244619043,458
1515244619044,468
1515244619044,474
1515244619045,484
1515244619046,486
1515244619046,486
1515244619100,478
1515244619102,470
1515244619103,462
1515244619105,462
1515244619106,468
1515244619136,476
1515244619140,486
1515244619141,492
1515244619143,496
1515244619144,492
1515244619145,486
1515244619147,474
1515244619148,468
1515244619149,468
1515244619151,470
1515244619152,478
1515244619153,488
1515244619155,494
1515244619156,494
1515244619158,492
1515244619159,486
1515244619161,476
1515244619162,470
1515244619163,468
1515244619167,471
1515244619168,482
1515244619170,490
1515244619171,495
1515244619172,502
1515244619174,495
1515244619175,490
1515244619176,479
1515244619177,472
1515244619179,470
1515244619180,476
1515244619181,482
1515244619183,492
1515244619184,498
1515244619186,500
1515244619187,495
1515244619188,487
1515244619191,478
1515244619193,472
1515244619194,472
1515244619195,476
1515244619197,480
1515244619199,490
1515244619201,495
1515244619201,498
1515244619202,495
1515244619203,488
1515244619204,478
1515244619205,471
1515244619206,470
1515244619206,474
1515244619207,482
1515244619208,490
1515244619208,495
1515244619237,498
1515244619241,495
1515244619244,487
1515244619245,478
1515244619247,470
1515244619247,468
1515244619249,470
1515244619250,478
1515244619250,487
1515244619252,495
1515244619253,498
1515244619254,500
1515244619255,490
1515244619256,480
1515244619257,471
1515244619259,470
1515244619260,476
1515244619260,482
1515244619261,492
1515244619262,498
1515244619263,502
1515244619263,498
1515244619264,492
1515244619265,482
1515244619266,474
1515244619267,472
1515244619267,476
1515244619268,484
1515244619269,494
1515244619270,502
1515244619271,503
1515244619271,502
1515244619272,496
1515244619273,487
1515244619273,482
1515244619274,484
1515244619275,492
1515244619276,502
1515244619276,512
1515244619277,524
1515244619278,524
1515244619279,522
1515244619279,511
1515244619280,502
1515244619281,494
1515244619282,490
1515244619282,494
1515244619283,506
1515244619284,522
1515244619285,535
1515244619286,543
1515244619307,546
1515244619308,538
1515244619309,527
1515244619310,522
1515244619311,518
1515244619311,519
1515244619312,524
1515244619313,526
1515244619313,532
1515244619314,527
1515244619315,522
1515244619315,511
1515244619316,502
1515244619317,494
1515244619317,490
1515244619318,490
1515244619319,494
1515244619320,500
1515244619320,503
1515244619321,502
1515244619322,500
1515244619322,486
1515244619323,476
1515244619324,470
1515244619324,468
1515244619325,471
1515244619326,484
1515244619327,490
1515244619327,495
1515244619328,502
1515244619329,495
1515244619329,490
1515244619330,478
1515244619331,472
1515244619354,470
1515244619359,474
1515244619360,482
1515244619361,490
1515244619361,495
1515244619362,500
1515244619363,500
1515244619363,490
1515244619364,479
1515244619367,470
1515244619369,462
1515244619369,455
1515244619370,460
1515244619371,465
1515244619372,475
1515244619372,487
1515244619373,498
1515244619374,510
1515244619375,526
1515244619377,550
1515244619379,586
1515244619379,638
1515244619380,700
1515244619381,766
1515244619402,834
1515244619404,902
1515244619405,962
1515244619406,996
1515244619406,1004
1515244619407,998
1515244619408,998
1515244619409,994
1515244619409,974
1515244619410,927
1515244619411,854
1515244619411,760
1515244619412,656
1515244619413,558
1515244619414,478
1515244619414,426
1515244619415,404
1515244619416,411
1515244619417,436
1515244619417,468
1515244619418,494
1515244619419,510
1515244619420,511
1515244619420,506
1515244619421,490
1515244619422,478
1515244619441,470
1515244619443,466
1515244619443,470
1515244619444,478
1515244619445,482
1515244619445,484
1515244619446,482
1515244619447,476
1515244619448,464
1515244619448,458
1515244619449,456
1515244619450,460
1515244619451,468
1515244619451,478
1515244619518,486
1515244619521,490
1515244619522,486
1515244619523,479
1515244619547,470
1515244619548,463
1515244619550,462
1515244619551,468
1515244619553,476
1515244619554,486
1515244619556,492
1515244619557,496
1515244619559,494
1515244619560,488
1515244619561,478
1515244619563,474
1515244619564,472
1515244619565,478
1515244619566,486
1515244619567,495
1515244619568,503
1515244619571,508
1515244619572,506
1515244619573,498
1515244619574,492
1515244619575,482
1515244619576,481
1515244619577,486
1515244619579,495
1515244619580,506
1515244619582,516
1515244619584,518
1515244619585,518
1515244619586,510
1515244619587,503
1515244619588,496
1515244619589,494
1515244619590,500
1515244619591,509
1515244619593,518
1515244619594,527
1515244619595,531
1515244619596,527
1515244619597,520
1515244619598,516
1515244619599,508
1515244619600,508
1515244619601,511
1515244619603,524
1515244619604,532
1515244619605,540
1515244619606,542
1515244619607,540
1515244619608,534
1515244619609,524
1515244619610,518
1515244619632,518
1515244619637,524
1515244619638,527
1515244619639,540
1515244619640,548
1515244619641,550
1515244619641,546
1515244619642,540
1515244619643,530
1515244619644,524
1515244619644,524
1515244619645,527
1515244619646,535
1515244619646,546
1515244619647,551
1515244619648,556
1515244619648,550
1515244619649,542
1515244619650,534
1515244619650,526
1515244619651,519
1515244619654,524
1515244619656,532
1515244619656,535
1515244619657,540
1515244619658,538
1515244619658,532
1515244619659,519
1515244619660,508
1515244619660,495
1515244619661,491
1515244619662,491
1515244619663,496
1515244619663,502
1515244619664,508
1515244619665,506
1515244619665,502
1515244619666,492
1515244619667,479
1515244619667,472
1515244619668,468
1515244619669,470
1515244619669,476
1515244619688,482
1515244619690,490
1515244619690,490
1515244619691,486
1515244619692,479
1515244619693,470
1515244619693,462
1515244619694,455
1515244619695,462
1515244619696,472
1515244619696,479
1515244619697,486
1515244619698,487
1515244619699,486
1515244619699,478
1515244619700,468
1515244619701,462
1515244619701,462
1515244619702,468
1515244619703,474
1515244619706,484
1515244619707,492
1515244619707,492
1515244619708,487
1515244619709,484
1515244619709,471
1515244619710,468
1515244619711,468
1515244619711,470
1515244619712,478
1515244619734,487
1515244619736,495
1515244619737,495
1515244619738,494
1515244619739,488
1515244619739,478
1515244619740,470
1515244619741,470
1515244619741,476
1515244619742,484
1515244619743,490
1515244619744,495
1515244619744,500
1515244619745,495
1515244619746,487
1515244619746,478
1515244619747,472
1515244619750,470
1515244619751,474
1515244619752,482
1515244619753,492
1515244619753,495
1515244619771,500
1515244619772,500
1515244619773,490
1515244619774,479
1515244619775,474
1515244619775,472
1515244619776,474
1515244619777,484
1515244619778,490
1515244619778,498
1515244619779,500
1515244619780,500
1515244619781,490
1515244619781,478
1515244619782,471
1515244619783,470
1515244619784,476
1515244619804,482
1515244619806,490
1515244619806,498
1515244619807,500
1515244619808,495
1515244619809,490
1515244619809,478
1515244619810,471
1515244619811,470
1515244619811,474
1515244619812,484
1515244619813,490
1515244619814,500
1515244619814,502
1515244619815,500
1515244619816,490
1515244619817,478
1515244619841,470
1515244619844,470
1515244619845,474
1515244619846,482
1515244619847,490
1515244619848,495
1515244619849,500
1515244619849,495
1515244619850,487
1515244619851,478
1515244619852,471
1515244619853,470
1515244619854,474
1515244619854,482
1515244619855,492
1515244619856,495
1515244619857,498
1515244619858,494
1515244619878,487
1515244619879,478
1515244619880,471
1515244619881,470
1515244619882,474
1515244619883,484
1515244619883,492
1515244619884,496
1515244619885,500
1515244619886,494
1515244619886,487
1515244619887,478
1515244619890,471
1515244619891,470
1515244619892,474
1515244619893,482
1515244619893,491
1515244619894,498
1515244619914,502
1515244619915,498
1515244619916,492
1515244619916,484
1515244619917,476
1515244619918,474
1515244619919,482
1515244619920,492
1515244619920,503
1515244619921,511
1515244619922,518
1515244619922,514
1515244619923,510
1515244619924,498
1515244619925,490
1515244619925,488
1515244619926,490
1515244619927,500
1515244619949,510
1515244619952,522
1515244619953,530
1515244619954,534
1515244619956,527
1515244619958,522
1515244619959,518
1515244619959,514
1515244619960,518
1515244619961,524
1515244619962,527
1515244619962,530
1515244619963,527
1515244619964,519
1515244619964,510
1515244619965,495
1515244619966,488
1515244619985,486
1515244619986,488
1515244619987,494
1515244619988,502
1515244619989,506
1515244619989,503
1515244619990,498
1515244619991,486
1515244619992,476
1515244619992,463
1515244619993,462
1515244619994,463
1515244619994,476
1515244619995,484
1515244619996,492
1515244619997,494
1515244619997,490
1515244619998,484
1515244619999,472
1515244620018,463
1515244620019,464
1515244620020,468
1515244620020,476
1515244620021,486
1515244620022,494
1515244620023,495
1515244620023,492
1515244620024,484
1515244620025,474
1515244620026,468
1515244620028,463
1515244620030,462
1515244620031,460
1515244620031,462
1515244620032,463
1515244620033,468
1515244620054,472
1515244620061,478
1515244620062,486
1515244620063,502
1515244620063,527
1515244620064,567
1515244620065,618
1515244620066,676
1515244620066,738
1515244620067,798
1515244620068,858
1515244620069,910
1515244620069,962
1515244620070,990
1515244620071,998
1515244620071,998
1515244620072,991
1515244620073,982
1515244620094,942
1515244620096,871
1515244620096,778
1515244620097,674
1515244620098,572
1515244620098,487
1515244620099,431
1515244620100,407
1515244620101,412
1515244620101,431
1515244620102,460
1515244620103,479
1515244620103,492
1515244620104,492
1515244620105,486
1515244620106,474
1515244620106,468
1515244620107,466
1515244620108,470
1515244620108,474
1515244620128,478
1515244620129,478
1515244620130,471
1515244620131,463
1515244620131,455
1515244620132,450
1515244620133,450
1515244620134,454
1515244620134,462
1515244620135,470
1515244620136,478
1515244620137,479
1515244620138,476
1515244620138,470
1515244620139,462
1515244620140,454
1515244620141,454
1515244620163,458
1515244620166,468
1515244620166,478
1515244620167,486
1515244620168,488
1515244620169,486
1515244620169,478
1515244620170,470
1515244620171,462
1515244620174,462
1515244620175,466
1515244620176,478
1515244620177,486
1515244620178,494
1515244620179,498
1515244620179,495
1515244620180,487
1515244620199,479
1515244620201,474
1515244620201,476
1515244620202,478
1515244620203,487
1515244620204,495
1515244620204,506
1515244620207,510
1515244620209,506
1515244620210,502
1515244620210,494
1515244620211,486
1515244620212,488
1515244620213,490
1515244620213,500
1515244620214,510
1515244620215,518
1515244620216,522
1515244620234,518
1515244620235,511
1515244620236,503
1515244620237,498
1515244620238,498
1515244620238,502
1515244620239,511
1515244620240,522
1515244620241,530
1515244620241,534
1515244620242,530
1515244620243,524
1515244620244,516
1515244620244,510
1515244620245,510
1515244620246,514
1515244620247,524
1515244620247,534
1515244620269,540
1515244620272,542
1515244620273,540
1515244620274,530
1515244620274,522
1515244620275,514
1515244620276,516
1515244620277,518
1515244620277,526
1515244620278,535
1515244620279,543
1515244620280,546
1515244620281,543
1515244620281,535
1515244620282,526
1515244620283,519
1515244620284,518
1515244620284,519
1515244620285,526
1515244620305,534
1515244620306,538
1515244620307,535
1515244620308,527
1515244620309,518
1515244620309,506
1515244620310,494
1515244620311,490
1515244620311,490
1515244620314,495
1515244620316,502
1515244620317,508
1515244620317,503
1515244620318,498
1515244620319,488
1515244620320,476
1515244620320,468
1515244620341,464
1515244620343,466
1515244620344,474
1515244620344,484
1515244620345,486
1515244620346,486
1515244620346,482
1515244620347,472
1515244620348,462
1515244620349,455
1515244620349,454
1515244620350,460
1515244620351,466
1515244620352,476
1515244620352,482
1515244620353,484
1515244620354,479
1515244620355,471
1515244620375,462
1515244620378,455
1515244620379,454
1515244620380,458
1515244620381,466
1515244620382,476
1515244620383,484
1515244620383,484
1515244620384,480
1515244620385,474
1515244620386,464
1515244620386,458
1515244620387,460
1515244620388,462
1515244620389,472
1515244620389,484
1515244620390,492
1515244620391,492
1515244620391,488
1515244620409,479
1515244620410,472
1515244620411,463
1515244620412,463
1515244620413,470
1515244620413,478
1515244620414,486
1515244620415,494
1515244620416,494
1515244620416,492
1515244620417,484
1515244620418,474
1515244620419,468
1515244620419,466
1515244620420,470
1515244620421,478
1515244620438,488
1515244620440,494
1515244620440,495
1515244620441,494
1515244620442,484
1515244620442,474
1515244620445,470
1515244620446,468
1515244620447,471
1515244620448,482
1515244620448,490
1515244620451,495
1515244620452,500
1515244620453,494
1515244620473,486
1515244620474,476
1515244620475,470
1515244620475,470
1515244620476,471
1515244620479,479
1515244620480,487
1515244620481,494
1515244620482,495
1515244620483,492
1515244620483,484
1515244620484,476
1515244620485,467
1515244620485,466
1515244620486,470
1515244620487,478
1515244620487,487
1515244620488,494
1515244620506,494
1515244620507,490
1515244620508,482
1515244620508,474
1515244620509,468
1515244620510,466
1515244620510,470
1515244620511,478
1515244620512,486
1515244620513,490
1515244620513,494
1515244620514,490
1515244620515,482
1515244620516,471
1515244620516,468
1515244620536,463
1515244620538,470
1515244620538,478
1515244620539,487
1515244620540,494
1515244620541,494
1515244620541,490
1515244620542,482
1515244620543,476
1515244620544,466
1515244620544,466
1515244620545,471
1515244620546,479
1515244620547,490
1515244620547,496
1515244620548,495
1515244620549,494
1515244620571,486
1515244620572,476
1515244620573,470
1515244620576,468
1515244620580,471
1515244620581,482
1515244620581,490
1515244620582,495
1515244620583,495
1515244620584,494
1515244620584,486
1515244620585,478
1515244620588,472
1515244620589,472
1515244620590,474
1515244620608,482
1515244620609,490
1515244620610,495
1515244620611,498
1515244620612,494
1515244620612,486
1515244620613,478
1515244620614,470
1515244620615,470
1515244620615,476
1515244620616,482
1515244620617,494
1515244620617,502
1515244620618,508
1515244620619,507
1515244620620,502
1515244620620,494
1515244620621,487
1515244620622,487
1515244620623,494
1515244620623,500
1515244620642,508
1515244620644,511
1515244620644,516
1515244620645,510
1515244620646,506
1515244620647,503
1515244620647,503
1515244620648,508
1515244620649,514
1515244620650,526
1515244620650,534
1515244620651,542
1515244620652,542
1515244620653,535
1515244620653,524
1515244620654,510
1515244620682,495
1515244620686,494
1515244620687,494
1515244620688,498
1515244620688,506
1515244620689,512
1515244620693,512
1515244620694,508
1515244620695,495
1515244620696,484
1515244620697,474
1515244620698,470
1515244620698,470
1515244620699,478
1515244620700,484
1515244620701,490
1515244620703,492
1515244620705,488
1515244620705,482
1515244620727,476
1515244620728,466
1515244620729,463
1515244620730,470
1515244620731,478
1515244620731,486
1515244620732,494
1515244620733,496
1515244620734,492
1515244620735,484
1515244620737,471
1515244620739,468
1515244620740,468
1515244620740,470
1515244620741,477
1515244620742,486
1515244620743,486
1515244620743,480
1515244620744,470
1515244620745,455
1515244620746,446
1515244620746,446
1515244620747,455
1515244620767,476
1515244620769,503
1515244620770,540
1515244620770,578
1515244620771,622
1515244620772,668
1515244620772,711
1515244620773,764
1515244620774,815
1515244620774,878
1515244620775,940
1515244620776,990
1515244620777,998
1515244620778,1004
1515244620779,998
1515244620779,990
1515244620780,953
1515244620781,886
1515244620842,790
1515244620845,692
1515244620872,598
1515244620874,524
1515244620876,468
1515244620877,438
1515244620879,430
1515244620880,434
1515244620881,446
1515244620883,458
1515244620884,470
1515244620886,478
1515244620888,488
1515244620889,494
1515244620890,495
1515244620891,495
1515244620894,492
1515244620895,481
1515244620896,470
1515244620897,458
1515244620900,450
1515244620901,450
1515244620903,454
1515244620904,462
1515244620905,472
1515244620906,478
1515244620907,479
1515244620909,476
1515244620910,470
1515244620911,462
1515244620912,454
1515244620913,454
1515244620914,458
1515244620915,468
1515244620916,475
1515244620917,482
1515244620918,486
1515244620920,482
1515244620921,474
1515244620922,468
1515244620923,464
1515244620924,463
1515244620925,470
1515244620926,480
1515244620927,488
1515244620929,494
1515244620930,497
1515244620932,495
1515244620933,488
1515244620934,481
1515244620936,474
1515244620937,474
1515244620938,479
1515244620939,490
1515244620940,500
1515244620941,506
1515244620963,510
1515244620965,508
1515244620966,498
1515244620967,491
1515244620968,486
1515244620969,488
1515244620969,492
1515244620970,502
1515244620971,510
1515244620971,518
1515244620972,519
1515244620973,518
1515244620974,510
1515244620975,501
1515244620976,495
1515244620976,495
1515244620977,504
1515244620978,512
1515244620979,522
1515244620979,532
1515244620980,532
1515244620981,531
1515244620981,524
1515244620982,516
1515244620983,508
1515244620983,510
1515244620984,514
1515244620985,525
1515244620985,532
1515244620986,540
1515244620987,542
1515244620987,540
1515244620988,532
1515244620989,524
1515244620990,516
1515244620990,516
1515244620991,524
1515244620992,530
1515244620992,540
1515244620993,548
1515244620994,550
1515244620994,546
1515244620995,535
1515244620996,532
1515244621015,522
1515244621017,519
1515244621018,526
1515244621018,534
1515244621019,542
1515244621020,546
1515244621020,546
1515244621021,542
1515244621022,534
1515244621023,524
1515244621024,511
1515244621024,508
1515244621025,508
1515244621026,516
1515244621027,518
1515244621028,520
1515244621029,520
1515244621029,510
1515244621030,498
1515244621032,486
1515244621034,478
1515244621034,476
1515244621035,478
1515244621036,484
1515244621036,492
1515244621037,496
1515244621059,494
1515244621060,490
1515244621061,479
1515244621061,470
1515244621062,462
1515244621063,460
1515244621066,464
1515244621067,471
1515244621068,479
1515244621069,486
1515244621069,488
1515244621070,482
1515244621071,474
1515244621072,466
1515244621073,458
1515244621073,458
1515244621074,462
1515244621075,470
1515244621075,479
1515244621078,486
1515244621079,488
1515244621100,482
1515244621101,474
1515244621102,463
1515244621102,460
1515244621103,460
1515244621104,466
1515244621104,474
1515244621105,484
1515244621106,490
1515244621107,494
1515244621108,490
1515244621108,482
1515244621109,472
1515244621110,466
1515244621111,468
1515244621111,471
1515244621112,479
1515244621113,487
1515244621114,494
1515244621114,495
1515244621134,492
1515244621135,484
1515244621136,474
1515244621136,470
1515244621137,470
1515244621138,474
1515244621139,482
1515244621139,490
1515244621140,495
1515244621141,495
1515244621142,494
1515244621143,486
1515244621143,476
1515244621144,472
1515244621145,470
1515244621146,474
1515244621147,484
1515244621177,490
1515244621180,494
1515244621181,495
1515244621182,494
1515244621183,486
1515244621184,476
1515244621185,470
1515244621185,470
1515244621186,476
1515244621187,482
1515244621188,490
1515244621188,495
1515244621189,500
1515244621190,494
1515244621190,486
1515244621191,478
1515244621192,470
1515244621192,470
1515244621193,476
1515244621194,482
1515244621194,492
1515244621195,498
1515244621196,500
1515244621197,494
1515244621216,486
1515244621217,478
1515244621218,470
1515244621219,470
1515244621219,476
1515244621220,484
1515244621225,492
1515244621226,495
1515244621227,500
1515244621228,494
1515244621229,486
1515244621229,478
1515244621230,470
1515244621231,470
1515244621231,476
1515244621232,486
1515244621233,494
1515244621233,500
1515244621234,502
1515244621252,500
1515244621253,487
1515244621254,478
1515244621255,471
1515244621255,470
1515244621256,476
1515244621257,484
1515244621258,494
1515244621259,498
1515244621259,500
1515244621260,495
1515244621261,488
1515244621262,478
1515244621263,471
1515244621263,471
1515244621264,478
1515244621267,484
1515244621330,492
1515244621365,498
1515244621367,500
1515244621369,495
1515244621370,487
1515244621372,478
1515244621374,472
1515244621375,472
1515244621377,478
1515244621379,486
1515244621380,494
1515244621382,502
1515244621384,503
1515244621385,502
1515244621386,500
1515244621389,490
1515244621391,487
1515244621392,490
1515244621393,495
1515244621395,506
1515244621396,516
1515244621397,518
1515244621399,516
1515244621402,510
1515244621403,502
1515244621404,500
1515244621405,495
1515244621406,503
1515244621407,516
1515244621408,527
1515244621409,540
1515244621410,548
1515244621411,550
1515244621413,546
1515244621414,536
1515244621415,519
1515244621416,510
1515244621417,503
1515244621418,504
1515244621419,508
1515244621420,511
1515244621422,518
1515244621423,514
1515244621424,510
1515244621425,495
1515244621426,486
1515244621427,478
1515244621430,474
1515244621432,478
1515244621433,484
1515244621434,490
1515244621435,494
1515244621437,494
1515244621438,490
1515244621439,482
1515244621440,471
1515244621441,468
1515244621463,466
1515244621464,472
1515244621465,484
1515244621466,492
1515244621467,494
1515244621468,495
1515244621468,492
1515244621469,484
1515244621470,474
1515244621470,470
1515244621471,470
1515244621472,474
1515244621473,482
1515244621473,490
1515244621474,494
1515244621475,494
1515244621476,484
1515244621477,466
1515244621477,450
1515244621478,442
1515244621479,444
1515244621480,460
1515244621481,478
1515244621481,503
1515244621482,532
1515244621483,562
1515244621483,596
1515244621484,632
1515244621485,674
1515244621485,728
1515244621486,783
1515244621487,854
1515244621487,919
1515244621488,988
1515244621489,999
1515244621489,1004
1515244621490,998
1515244621491,998
1515244621491,990
1515244621492,948
1515244621493,871
1515244621493,782
1515244621494,686
1515244621495,594
1515244621496,520
1515244621496,462
1515244621497,428
1515244621498,414
1515244621498,414
1515244621499,428
1515244621517,450
1515244621519,474
1515244621519,494
1515244621520,503
1515244621521,510
1515244621522,503
1515244621522,494
1515244621523,479
1515244621524,463
1515244621524,455
1515244621525,454
1515244621526,460
1515244621527,463
1515244621527,474
1515244621528,482
1515244621529,482
1515244621530,478
1515244621533,471
1515244621534,462
1515244621534,460
1515244621535,460
1515244621536,464
1515244621536,471
1515244621537,482
1515244621538,488
1515244621538,490
1515244621539,486
1515244621559,478
1515244621560,470
1515244621561,468
1515244621562,468
1515244621563,471
1515244621563,484
1515244621564,490
1515244621565,495
1515244621565,500
1515244621566,496
1515244621567,490
1515244621567,482
1515244621571,478
1515244621572,478
1515244621573,486
1515244621574,494
1515244621575,502
1515244621575,510
1515244621578,510
1515244621579,508
1515244621580,498
1515244621599,490
1515244621600,486
1515244621601,486
1515244621602,494
1515244621603,502
1515244621610,510
1515244621611,518
1515244621612,519
1515244621613,518
1515244621614,510
1515244621615,504
1515244621616,498
1515244621617,500
1515244621618,508
1515244621620,518
1515244621620,526
1515244621621,534
1515244621622,536
1515244621623,534
1515244621643,526
1515244621646,520
1515244621647,511
1515244621648,511
1515244621649,518
1515244621650,527
1515244621650,540
1515244621651,543
1515244621653,546
1515244621654,542
1515244621655,534
1515244621656,526
1515244621657,524
1515244621658,522
1515244621659,526
1515244621660,536
1515244621661,542
1515244621661,550
1515244621662,550
1515244621663,546
1515244621664,540
1515244621665,530
1515244621687,526
1515244621688,526
1515244621689,532
1515244621690,542
1515244621691,550
1515244621692,554
1515244621693,556
1515244621694,550
1515244621695,540
1515244621697,527
1515244621698,522
1515244621699,518
1515244621700,520
1515244621704,526
1515244621706,527
1515244621707,530
1515244621707,527
1515244621708,524
1515244621709,510
1515244621710,496
1515244621711,487
1515244621711,484
1515244621712,486
1515244621732,494
1515244621736,498
1515244621737,504
1515244621742,502
1515244621746,494
1515244621747,484
1515244621748,474
1515244621749,466
1515244621750,468
1515244621751,470
1515244621751,478
1515244621753,486
1515244621754,490
1515244621754,490
1515244621755,486
1515244621756,478
1515244621757,468
1515244621758,462
1515244621758,462
1515244621759,468
1515244621760,478
1515244621761,486
1515244621762,492
1515244621784,494
1515244621785,487
1515244621786,480
1515244621787,471
1515244621788,468
1515244621789,466
1515244621790,472
1515244621791,482
1515244621792,490
1515244621793,495
1515244621794,495
1515244621795,494
1515244621796,486
1515244621797,478
1515244621798,472
1515244621799,471
1515244621800,478
1515244621801,488
1515244621802,495
1515244621803,503
1515244621804,506
1515244621804,502
1515244621805,494
1515244621806,484
1515244621807,478
1515244621827,478
1515244621829,484
1515244621830,492
1515244621831,500
1515244621832,508
1515244621833,506
1515244621834,504
1515244621835,494
1515244621838,484
1515244621840,478
1515244621841,478
1515244621842,483
1515244621843,492
1515244621845,498
1515244621846,503
1515244621847,503
1515244621848,500
1515244621849,492
1515244621849,484
1515244621850,478
1515244621851,478
1515244621871,484
1515244621873,492
1515244621874,500
1515244621875,503
1515244621876,506
1515244621877,502
1515244621877,492
1515244621878,483
1515244621880,478
1515244621881,478
1515244621882,484
1515244621883,492
1515244621884,495
1515244621885,502
1515244621886,503
1515244621887,498
1515244621888,492
1515244621889,482
1515244621890,478
1515244621890,478
1515244621891,482
1515244621936,492
1515244621958,498
1515244621963,504
1515244621966,502
1515244621968,495
1515244621970,487
1515244621972,478
1515244621974,476
1515244621975,474
1515244621977,478
1515244621978,486
1515244621980,494
1515244621981,500
1515244621983,502
1515244621985,500
1515244621986,487
1515244621987,479
1515244621989,474
1515244621990,474
1515244621992,479
1515244621993,487
1515244621994,496
1515244621996,502
1515244621997,504
1515244621998,495
1515244622000,487
1515244622001,479
1515244622003,474
1515244622004,474
1515244622005,479
1515244622005,487
1515244622006,495
1515244622007,502
1515244622008,500
1515244622011,495
1515244622013,487
1515244622013,479
1515244622014,474
1515244622015,474
1515244622016,478
1515244622017,487
1515244622017,495
1515244622018,503
1515244622037,506
1515244622038,504
1515244622039,494
1515244622040,486
1515244622041,479
1515244622042,482
1515244622043,486
1515244622044,494
1515244622044,502
1515244622045,510
1515244622046,510
1515244622047,506
1515244622048,500
1515244622050,490
1515244622050,488
1515244622051,486
1515244622052,490
1515244622053,500
1515244622054,510
1515244622055,516
1515244622056,520
1515244622056,518
1515244622057,510
1515244622058,503
1515244622059,500
1515244622061,502
1515244622063,508
1515244622063,511
1515244622064,520
1515244622065,526
1515244622066,527
1515244622067,528
1515244622068,526
1515244622069,522
1515244622070,519
1515244622070,522
1515244622071,527
1515244622072,538
1515244622073,546
1515244622074,552
1515244622131,550
1515244622133,542
1515244622134,528
1515244622134,516
1515244622135,508
1515244622136,506
1515244622137,510
1515244622138,516
1515244622139,522
1515244622140,526
1515244622141,523
1515244622142,518
1515244622144,508
1515244622145,494
1515244622146,486
1515244622147,482
1515244622148,485
1515244622149,494
1515244622151,502
1515244622152,506
1515244622153,508
1515244622154,504
1515244622154,495
1515244622155,488
1515244622156,484
1515244622157,484
1515244622158,492
1515244622159,497
1515244622162,506
1515244622163,510
1515244622164,510
1515244622165,506
1515244622166,500
1515244622167,488
1515244622167,482
1515244622168,484
1515244622169,486
1515244622170,490
1515244622172,494
1515244622174,490
1515244622175,484
1515244622175,475
1515244622176,468
1515244622177,466
1515244622178,476
1515244622179,490
1515244622181,516
1515244622183,550
1515244622204,591
1515244622205,638
1515244622206,687
1515244622207,738
1515244622208,790
1515244622209,839
1515244622210,898
1515244622211,956
1515244622212,998
1515244622213,998
1515244622214,998
1515244622216,998
1515244622217,990
1515244622218,960
1515244622218,886
1515244622219,788
1515244622220,679
1515244622221,588
1515244622222,510
1515244622223,462
1515244622224,439
1515244622225,440
1515244622226,451
1515244622226,468
1515244622227,478
1515244622228,483
1515244622229,485
1515244622230,487
1515244622231,492
1515244622232,492
1515244622232,494
1515244622233,494
1515244622234,487
1515244622235,479
1515244622236,470
1515244622236,460
1515244622258,454
1515244622262,452
1515244622263,458
1515244622264,466
1515244622265,476
1515244622266,482
1515244622267,484
1515244622268,484
1515244622269,474
1515244622270,468
1515244622271,462
1515244622271,462
1515244622273,468
1515244622273,476
1515244622274,485
1515244622275,490
1515244622276,494
1515244622277,490
1515244622278,486
1515244622279,478
1515244622280,474
1515244622280,474
1515244622281,482
1515244622282,494
1515244622283,504
1515244622283,510
1515244622284,511
1515244622305,511
1515244622306,506
1515244622307,502
1515244622308,500
1515244622309,498
1515244622310,503
1515244622311,511
1515244622312,522
1515244622315,527
1515244622317,530
1515244622318,526
1515244622319,524
1515244622320,520
1515244622321,510
1515244622322,510
1515244622323,518
1515244622324,526
1515244622324,535
1515244622325,542
1515244622328,543
1515244622329,540
1515244622330,534
1515244622331,526
1515244622353,519
1515244622354,522
1515244622355,526
1515244622356,535
1515244622357,546
1515244622358,552
1515244622359,554
1515244622362,552
1515244622364,542
1515244622365,534
1515244622366,527
1515244622367,528
1515244622368,532
1515244622369,540
1515244622370,548
1515244622370,554
1515244622371,556
1515244622372,551
1515244622373,546
1515244622374,535
1515244622374,532
1515244622375,534
1515244622376,540
1515244622377,546
1515244622397,554
1515244622398,559
1515244622399,559
1515244622400,558
1515244622401,550
1515244622402,542
1515244622403,535
1515244622403,535
1515244622404,542
1515244622406,546
1515244622407,556
1515244622408,558
1515244622409,556
1515244622410,550
1515244622411,540
1515244622412,532
1515244622413,518
1515244622413,514
1515244622414,516
1515244622415,520
1515244622416,522
1515244622416,526
1515244622436,526
1515244622437,520
1515244622438,508
1515244622439,495
1515244622440,490
1515244622441,487
1515244622442,492
1515244622443,495
1515244622444,504
1515244622448,506
1515244622450,506
1515244622451,502
1515244622452,492
1515244622452,482
1515244622453,476
1515244622454,476
1515244622455,478
1515244622455,486
1515244622456,494
1515244622457,495
1515244622479,500
1515244622483,492
1515244622484,484
1515244622484,474
1515244622485,470
1515244622489,470
1515244622491,474
1515244622491,484
1515244622492,487
1515244622493,494
1515244622495,494
1515244622496,487
1515244622496,482
1515244622497,474
1515244622498,470
1515244622499,472
1515244622500,476
1515244622501,486
1515244622501,494
1515244622502,500
1515244622503,502
1515244622504,498
1515244622504,490
1515244622525,484
1515244622526,478
1515244622527,478
1515244622528,482
1515244622529,490
1515244622530,500
1515244622531,502
1515244622532,503
1515244622533,500
1515244622534,494
1515244622534,486
1515244622536,479
1515244622536,479
1515244622537,484
1515244622538,490
1515244622539,495
1515244622540,502
1515244622541,502
1515244622541,500
1515244622542,492
1515244622543,482
1515244622564,476
1515244622565,476
1515244622566,478
1515244622567,486
1515244622568,494
1515244622569,495
1515244622570,495
1515244622571,490
1515244622572,484
1515244622573,474
1515244622574,470
1515244622578,470
1515244622579,474
1515244622580,484
1515244622582,487
1515244622583,492
1515244622584,492
1515244622585,487
1515244622647,480
1515244622678,472
1515244622681,466
1515244622684,466
1515244622686,470
1515244622688,476
1515244622689,484
1515244622692,486
1515244622694,486
1515244622697,484
1515244622699,478
1515244622701,470
1515244622702,463
1515244622704,463
1515244622705,470
1515244622707,474
1515244622708,482
1515244622710,486
1515244622711,486
1515244622712,482
1515244622714,474
1515244622715,466
1515244622717,462
1515244622718,462
1515244622720,463
1515244622721,471
1515244622723,478
1515244622724,482
1515244622728,482
1515244622729,478
1515244622731,472
1515244622732,462
1515244622733,455
1515244622735,454
1515244622736,460
1515244622737,463
1515244622739,470
1515244622741,474
1515244622743,474
1515244622744,470
1515244622745,463
1515244622747,458
1515244622748,454
1515244622749,456
1515244622751,458
1515244622752,463
1515244622753,471
1515244622754,476
1515244622756,476
1515244622757,470
1515244622758,463
1515244622759,458
1515244622761,454
1515244622762,454
1515244622764,460
1515244622765,466
1515244622766,474
1515244622767,478
1515244622769,479
1515244622795,476
1515244622798,470
1515244622799,462
1515244622800,458
1515244622801,460
1515244622802,463
1515244622803,471
1515244622804,479
1515244622804,486
1515244622805,488
1515244622806,482
1515244622807,478
1515244622808,474
1515244622810,471
1515244622811,476
1515244622812,482
1515244622813,492
1515244622814,495
1515244622815,500
1515244622816,498
1515244622817,494
1515244622817,486
1515244622818,480
1515244622819,478
1515244622820,486
1515244622821,495
1515244622822,508
1515244622823,519
1515244622824,528
1515244622825,530
1515244622826,527
1515244622827,522
1515244622827,512
1515244622828,503
1515244622832,495
1515244622833,496
1515244622834,495
1515244622835,500
1515244622836,502
1515244622837,502
1515244622837,495
1515244622838,487
1515244622839,478
1515244622840,471
1515244622841,470
1515244622842,472
1515244622843,474
1515244622844,479
1515244622844,482
1515244622845,482
1515244622846,478
1515244622847,472
1515244622847,463
1515244622848,460
1515244622849,460
1515244622850,463
1515244622851,471
1515244622852,478
1515244622852,482
1515244622853,484
1515244622873,478
1515244622875,470
1515244622876,462
1515244622877,458
1515244622878,460
1515244622879,462
1515244622880,468
1515244622881,474
1515244622882,478
1515244622883,476
1515244622884,468
1515244622885,450
1515244622886,438
1515244622887,428
1515244622888,428
1515244622889,436
1515244622890,454
1515244622890,476
1515244622891,498
1515244622892,526
1515244622893,556
1515244622894,588
1515244622895,623
1515244622898,674
1515244622899,734
1515244622900,798
1515244622901,870
1515244622902,934
1515244622903,986
1515244622903,998
1515244622904,996
1515244622905,988
1515244622906,966
1515244622907,918
1515244622907,846
1515244622908,766
1515244622909,676
1515244622910,591
1515244622956,522
1515244622982,468
1515244622984,434
1515244622985,418
1515244622987,420
1515244622989,427
1515244622992,446
1515244622994,463
1515244622996,482
1515244622999,490
1515244623001,494
1515244623002,490
1515244623004,479
1515244623005,466
1515244623007,454
1515244623009,446
1515244623010,444
1515244623012,448
1515244623013,456
1515244623014,462
1515244623016,470
1515244623017,470
1515244623018,466
1515244623019,460
1515244623021,452
1515244623022,448
1515244623024,448
1515244623025,454
1515244623026,462
1515244623027,470
1515244623029,474
1515244623030,476
1515244623031,471
1515244623032,463
1515244623034,460
1515244623035,454
1515244623036,455
1515244623037,462
1515244623039,470
1515244623040,478
1515244623041,486
1515244623042,487
1515244623043,486
1515244623044,478
1515244623044,471
1515244623045,468
1515244623046,466
1515244623047,471
1515244623047,479
1515244623048,490
1515244623049,496
1515244623050,500
1515244623051,494
1515244623051,490
1515244623072,482
1515244623073,476
1515244623074,476
1515244623075,484
1515244623076,492
1515244623077,500
1515244623078,508
1515244623079,508
1515244623080,503
1515244623081,500
1515244623082,492
1515244623083,490
1515244623083,492
1515244623084,495
1515244623085,503
1515244623086,511
1515244623089,520
1515244623090,519
1515244623091,518
1515244623092,510
1515244623093,503
1515244623094,500
1515244623095,502
1515244623096,508
1515244623098,518
1515244623099,526
1515244623100,532
1515244623101,534
1515244623102,532
1515244623103,526
1515244623104,518
1515244623104,510
1515244623105,510
1515244623106,516
1515244623107,524
1515244623108,532
1515244623109,535
1515244623110,540
1515244623111,534
1515244623112,532
1515244623112,524
1515244623113,518
1515244623114,520
1515244623115,526
1515244623115,534
1515244623135,540
1515244623137,546
1515244623138,546
1515244623139,540
1515244623140,530
1515244623141,519
1515244623141,516
1515244623142,510
1515244623144,516
1515244623145,522
1515244623145,526
1515244623146,527
1515244623147,524
1515244623148,514
1515244623149,500
1515244623150,486
1515244623151,478
1515244623152,474
1515244623153,478
1515244623154,486
1515244623155,494
1515244623156,495
1515244623157,496
1515244623158,487
1515244623159,476
1515244623160,463
1515244623160,458
1515244623161,458
1515244623162,463
1515244623163,474
1515244623163,484
1515244623164,490
1515244623165,488
1515244623187,479
1515244623188,470
1515244623189,460
1515244623190,450
1515244623191,450
1515244623192,458
1515244623193,466
1515244623194,478
1515244623195,484
1515244623196,484
1515244623200,478
1515244623201,466
1515244623202,456
1515244623203,450
1515244623206,454
1515244623207,462
1515244623208,474
1515244623209,486
1515244623210,490
1515244623211,492
1515244623211,482
1515244623212,470
1515244623213,458
1515244623214,452
1515244623214,454
1515244623217,463
1515244623238,478
1515244623239,487
1515244623240,495
1515244623241,496
1515244623242,492
1515244623243,478
1515244623244,463
1515244623245,460
1515244623246,460
1515244623247,468
1515244623248,484
1515244623249,492
1515244623250,500
1515244623251,500
1515244623252,494
1515244623253,482
1515244623254,472
1515244623255,463
1515244623256,468
1515244623256,474
1515244623257,486
1515244623258,500
1515244623259,502
1515244623260,502
1515244623285,494
1515244623287,484
1515244623287,472
1515244623288,463
1515244623290,463
1515244623291,474
1515244623291,486
1515244623293,495
1515244623294,502
1515244623295,502
1515244623296,494
1515244623298,482
1515244623299,472
1515244623300,466
1515244623301,468
1515244623302,474
1515244623303,484
1515244623304,494
1515244623304,500
1515244623305,495
1515244623306,487
1515244623307,478
1515244623327,466
1515244623328,462
1515244623329,464
1515244623330,474
1515244623330,486
1515244623331,500
1515244623332,504
1515244623333,504
1515244623334,494
1515244623335,482
1515244623336,468
1515244623337,462
1515244623339,463
1515244623340,474
1515244623341,486
1515244623341,496
1515244623342,502
1515244623343,500
1515244623345,492
1515244623346,480
1515244623347,470
1515244623348,462
1515244623368,463
1515244623370,476
1515244623371,484
1515244623372,494
1515244623373,500
1515244623374,500
1515244623375,492
1515244623376,482
1515244623377,470
1515244623378,466
1515244623379,468
1515244623380,478
1515244623381,492
1515244623382,502
1515244623383,510
1515244623384,508
1515244623384,500
1515244623385,488
1515244623386,474
1515244623387,470
1515244623388,470
1515244623429,479
1515244623432,492
1515244623450,504
1515244623452,510
1515244623453,508
1515244623454,504
1515244623455,494
1515244623456,486
1515244623457,484
1515244623459,488
1515244623460,495
1515244623461,510
1515244623463,519
1515244623464,526
1515244623465,524
1515244623465,511
1515244623466,500
1515244623467,490
1515244623468,490
1515244623469,502
1515244623470,516
1515244623471,530
1515244623471,542
1515244623472,550
1515244623473,550
1515244623474,542
1515244623475,526
1515244623476,510
1515244623477,500
1515244623477,495
1515244623478,502
1515244623479,510
1515244623480,518
1515244623481,524
1515244623482,522
1515244623483,516
1515244623484,502
1515244623485,487
1515244623485,478
1515244623486,478
1515244623488,482
1515244623489,490
1515244623490,500
1515244623510,503
1515244623511,502
1515244623512,494
1515244623513,484
1515244623514,471
1515244623515,468
1515244623516,470
1515244623517,478
1515244623518,490
1515244623520,500
1515244623521,506
1515244623522,503
1515244623523,495
1515244623524,484
1515244623525,471
1515244623525,468
1515244623526,468
1515244623527,478
1515244623528,492
1515244623529,503
1515244623531,510
1515244623532,508
1515244623533,490
1515244623534,470
1515244623535,450
1515244623536,439
1515244623536,444
1515244623537,458
1515244623538,482
1515244623539,508
1515244623562,535
1515244623563,566
1515244623564,596
1515244623565,630
1515244623566,674
1515244623567,727
1515244623568,791
1515244623569,868
1515244623570,942
1515244623571,998
1515244623572,1005
1515244623573,999
1515244623574,999
1515244623575,999
1515244623576,1000
1515244623579,975
1515244623580,910
1515244623581,815
1515244623582,714
1515244623583,616
1515244623583,527
1515244623584,463
1515244623585,422
1515244623586,400
1515244623587,396
1515244623587,410
1515244623607,432
1515244623608,458
1515244623609,479
1515244623610,494
1515244623611,495
1515244623612,490
1515244623613,478
1515244623614,462
1515244623615,446
1515244623617,436
1515244623618,438
1515244623619,446
1515244623622,458
1515244623623,472
1515244623624,478
1515244623624,476
1515244623625,472
1515244623626,462
1515244623627,454
1515244623628,448
1515244623628,450
1515244623650,460
1515244623651,470
1515244623652,482
1515244623653,490
1515244623654,494
1515244623655,487
1515244623656,479
1515244623657,472
1515244623658,466
1515244623659,468
1515244623660,476
1515244623661,487
1515244623662,498
1515244623663,508
1515244623664,506
1515244623664,502
1515244623665,490
1515244623666,479
1515244623730,474
1515244623733,478
1515244623735,488
1515244623764,495
1515244623767,508
1515244623769,511
1515244623771,516
1515244623773,510
1515244623775,498
1515244623777,492
1515244623780,487
1515244623782,492
1515244623784,498
1515244623786,510
1515244623788,519
1515244623789,527
1515244623791,532
1515244623792,526
1515244623794,516
1515244623795,506
1515244623797,502
1515244623799,508
1515244623801,516
1515244623802,526
1515244623804,535
1515244623805,542
1515244623806,542
1515244623807,535
1515244623810,526
1515244623811,516
1515244623813,510
1515244623814,511
1515244623815,522
1515244623816,534
1515244623818,544
1515244623819,550
1515244623820,550
1515244623822,542
1515244623823,532
1515244623824,522
1515244623827,518
1515244623828,522
1515244623829,530
1515244623832,542
1515244623833,550
1515244623835,556
1515244623836,554
1515244623837,548
1515244623838,538
1515244623840,527
1515244623841,522
1515244623842,526
1515244623844,534
1515244623845,546
1515244623846,558
1515244623847,559
1515244623849,558
1515244623850,550
1515244623851,534
1515244623852,522
1515244623854,516
1515244623855,516
1515244623878,519
1515244623880,527
1515244623880,535
1515244623881,540
1515244623882,535
1515244623883,527
1515244623884,516
1515244623885,502
1515244623886,494
1515244623887,494
1515244623888,500
1515244623889,510
1515244623890,520
1515244623890,524
1515244623891,519
1515244623893,510
1515244623894,495
1515244623894,484
1515244623895,474
1515244623896,476
1515244623897,482
1515244623898,492
1515244623899,502
1515244623900,506
1515244623901,503
1515244623902,495
1515244623903,488
1515244623904,476
1515244623905,472
1515244623906,471
1515244623907,478
1515244623907,490
1515244623908,498
1515244623911,504
1515244623913,502
1515244623914,492
1515244623915,479
1515244623915,470
1515244623916,463
1515244623917,468
1515244623918,474
1515244623919,484
1515244623920,494
1515244623921,502
1515244623922,500
1515244623923,492
1515244623923,478
1515244623924,466
1515244623925,462
1515244623926,464
1515244623927,471
1515244623927,484
1515244623928,494
1515244623929,502
1515244623930,502
1515244623932,496
1515244623933,486
1515244623954,474
1515244623955,470
1515244623956,471
1515244623957,480
1515244623958,492
1515244623959,502
1515244623960,510
1515244623961,508
1515244623962,502
1515244623964,492
1515244623965,478
1515244623966,474
1515244623967,478
1515244623968,486
1515244623969,500
1515244623970,510
1515244623970,514
1515244623971,514
1515244623972,506
1515244623973,494
1515244623974,482
1515244623975,478
1515244623976,479
1515244623979,488
1515244623980,500
1515244623981,510
1515244623982,514
1515244623983,511
1515244623984,503
1515244623984,492
1515244623985,484
1515244623986,478
1515244623987,479
1515244623988,490
1515244623988,500
1515244623989,510
1515244623990,511
1515244623991,510
1515244624013,502
1515244624014,492
1515244624015,478
1515244624016,471
1515244624017,476
1515244624020,484
1515244624022,492
1515244624023,502
1515244624024,506
1515244624025,504
1515244624026,494
1515244624027,482
1515244624028,470
1515244624029,463
1515244624030,468
1515244624033,474
1515244624034,484
1515244624035,494
1515244624036,500
1515244624037,495
1515244624037,487
1515244624038,476
1515244624039,463
1515244624040,460
1515244624041,462
1515244624042,472
1515244624042,482
1515244624062,494
1515244624064,500
1515244624065,500
1515244624066,494
1515244624066,486
1515244624067,478
1515244624068,474
1515244624069,479
1515244624070,490
1515244624071,506
1515244624072,519
1515244624073,527
1515244624074,532
1515244624075,519
1515244624076,508
1515244624077,495
1515244624078,490
1515244624079,494
1515244624080,506
1515244624081,524
1515244624082,538
1515244624082,550
1515244624083,552
1515244624084,542
1515244624085,530
1515244624086,520
1515244624107,511
1515244624109,511
1515244624110,516
1515244624111,524
1515244624112,530
1515244624113,532
1515244624114,526
1515244624115,516
1515244624118,502
1515244624120,487
1515244624121,479
1515244624122,478
1515244624123,482
1515244624124,488
1515244624125,492
1515244624126,492
1515244624126,486
1515244624127,471
1515244624128,458
1515244624129,448
1515244624130,442
1515244624132,446
1515244624152,454
1515244624154,463
1515244624155,474
1515244624156,479
1515244624157,478
1515244624157,470
1515244624158,460
1515244624160,446
1515244624161,444
1515244624162,448
1515244624163,458
1515244624164,472
1515244624165,482
1515244624166,486
1515244624167,488
1515244624168,478
1515244624169,466
1515244624169,452
1515244624170,440
1515244624171,434
1515244624172,438
1515244624173,450
1515244624195,468
1515244624197,482
1515244624198,496
1515244624199,506
1515244624199,522
1515244624200,546
1515244624201,582
1515244624202,638
1515244624203,706
1515244624204,782
1515244624205,860
1515244624206,930
1515244624207,990
1515244624208,1004
1515244624209,1004
1515244624210,999
1515244624211,1004
1515244624212,1004
1515244624213,998
1515244624213,974
1515244624214,910
1515244624263,822
1515244624267,718
1515244624296,615
1515244624299,532
1515244624301,474
1515244624303,452
1515244624304,454
1515244624306,479
1515244624308,514
1515244624311,546
1515244624314,566
1515244624316,574
1515244624317,567
1515244624320,554
1515244624322,542
1515244624323,530
1515244624324,527
1515244624326,534
1515244624327,540
1515244624329,546
1515244624330,550
1515244624331,548
1515244624333,538
1515244624334,527
1515244624335,518
1515244624337,514
1515244624338,516
1515244624340,524
1515244624341,530
1515244624343,535
1515244624344,540
1515244624345,540
1515244624347,532
1515244624348,524
1515244624349,518
1515244624351,514
1515244624352,518
1515244624353,524
1515244624354,532
1515244624356,538
1515244624357,543
1515244624358,542
1515244624360,538
1515244624361,527
1515244624362,524
1515244624362,518
1515244624365,518
1515244624368,526
1515244624369,536
1515244624370,542
1515244624370,546
1515244624391,546
1515244624392,540
1515244624393,532
1515244624394,526
1515244624395,524
1515244624396,526
1515244624397,534
1515244624398,540
1515244624399,548
1515244624400,550
1515244624401,546
1515244624402,542
1515244624403,534
1515244624404,532
1515244624405,526
1515244624406,527
1515244624407,536
1515244624408,543
1515244624408,550
1515244624409,556
1515244624410,550
1515244624411,546
1515244624412,538
1515244624413,532
1515244624414,532
1515244624415,534
1515244624416,542
1515244624417,550
1515244624418,556
1515244624419,560
1515244624419,560
1515244624420,554
1515244624421,546
1515244624422,542
1515244624423,540
1515244624424,542
1515244624425,548
1515244624426,554
1515244624427,559
1515244624427,562
1515244624428,564
1515244624429,558
1515244624430,550
1515244624431,544
1515244624431,542
1515244624432,542
1515244624433,548
1515244624434,554
1515244624454,559
1515244624455,564
1515244624456,564
1515244624457,558
1515244624458,550
1515244624459,542
1515244624461,540
1515244624461,538
1515244624463,540
1515244624466,542
1515244624467,543
1515244624468,542
1515244624469,535
1515244624470,527
1515244624471,516
1515244624474,506
1515244624475,498
1515244624476,495
1515244624477,500
1515244624478,503
1515244624479,508
1515244624479,510
1515244624480,503
1515244624481,495
1515244624482,488
1515244624483,478
1515244624484,474
1515244624485,476
1515244624486,484
1515244624486,487
1515244624487,494
1515244624488,495
1515244624489,500
1515244624511,494
1515244624513,486
1515244624514,479
1515244624514,478
1515244624515,478
1515244624516,482
1515244624517,487
1515244624518,492
1515244624519,494
1515244624520,490
1515244624521,484
1515244624523,478
1515244624524,470
1515244624528,466
1515244624529,470
1515244624530,474
1515244624531,482
1515244624532,488
1515244624533,490
1515244624533,490
1515244624534,486
1515244624535,479
1515244624536,474
1515244624537,472
1515244624537,471
1515244624538,478
1515244624559,486
1515244624560,492
1515244624561,494
1515244624562,494
1515244624563,487
1515244624566,482
1515244624567,474
1515244624568,472
1515244624569,476
1515244624570,478
1515244624571,486
1515244624572,492
1515244624573,494
1515244624574,494
1515244624575,487
1515244624576,482
1515244624577,474
1515244624578,474
1515244624579,476
1515244624580,480
1515244624580,486
1515244624581,492
1515244624582,494
1515244624583,492
1515244624605,487
1515244624606,482
1515244624607,476
1515244624608,474
1515244624609,476
1515244624610,482
1515244624611,486
1515244624612,492
1515244624613,496
1515244624617,494
1515244624618,490
1515244624619,482
1515244624620,476
1515244624621,471
1515244624622,474
1515244624623,479
1515244624624,486
1515244624625,492
1515244624625,494
1515244624626,492
1515244624627,486
1515244624628,478
1515244624629,470
1515244624649,468
1515244624651,468
1515244624652,471
1515244624653,478
1515244624653,482
1515244624654,484
1515244624655,479
1515244624656,472
1515244624657,462
1515244624658,456
1515244624660,448
1515244624661,448
1515244624662,450
1515244624663,454
1515244624666,456
1515244624667,455
1515244624668,452
1515244624668,446
1515244624669,438
1515244624670,431
1515244624671,430
1515244624672,431
1515244624672,438
1515244624675,444
1515244624696,450
1515244624698,456
1515244624699,456
1515244624700,454
1515244624700,452
1515244624701,446
1515244624702,446
1515244624703,448
1515244624704,454
1515244624705,460
1515244624706,462
1515244624708,460
1515244624709,454
1515244624710,446
1515244624711,438
1515244624712,432
1515244624712,430
1515244624713,436
1515244624714,439
1515244624715,448
1515244624716,454
1515244624758,454
1515244624760,454
1515244624761,448
1515244624789,438
1515244624794,430
1515244624795,426
1515244624797,428
1515244624798,430
1515244624800,438
1515244624802,448
1515244624804,456
1515244624806,458
1515244624810,458
1515244624812,454
1515244624813,450
1515244624815,448
1515244624816,452
1515244624817,455
1515244624818,459
1515244624820,460
1515244624821,452
1515244624822,442
1515244624824,430
1515244624825,418
1515244624826,410
1515244624828,410
1515244624829,412
1515244624830,418
1515244624831,428
1515244624833,431
1515244624834,431
1515244624835,428
1515244624836,414
1515244624838,402
1515244624839,394
1515244624841,390
1515244624842,392
1515244624844,398
1515244624845,406
1515244624846,412
1515244624847,414
1515244624849,412
1515244624850,407
1515244624851,402
1515244624852,398
1515244624854,398
1515244624856,399
1515244624881,410
1515244624883,418
1515244624883,423
1515244624884,428
1515244624885,423
1515244624886,418
1515244624887,410
1515244624888,404
1515244624889,399
1515244624890,399
1515244624892,402
1515244624894,406
1515244624895,410
1515244624895,410
1515244624896,412
1515244624897,415
1515244624899,423
1515244624900,439
1515244624901,468
1515244624901,510
1515244624902,559
1515244624903,622
1515244624904,686
1515244624905,750
1515244624906,810
1515244624907,868
1515244624908,918
1515244624909,964
1515244624910,982
1515244624911,990
1515244624911,983
1515244624912,968
1515244624913,926
1515244624914,855
1515244624915,766
1515244624916,666
1515244624917,570
1515244624918,492
1515244624919,438
1515244624919,414
1515244624920,418
1515244624921,438
1515244624922,462
1515244624923,486
1515244624923,495
1515244624924,500
1515244624944,495
1515244624946,490
1515244624947,484
1515244624948,482
1515244624949,484
1515244624950,486
1515244624953,486
1515244624954,482
1515244624955,475
1515244624956,474
1515244624958,468
1515244624959,468
1515244624959,470
1515244624960,476
1515244624961,484
1515244624962,492
1515244624965,496
1515244624969,500
1515244624970,494
1515244624971,486
1515244624972,479
1515244624973,478
1515244624973,482
1515244624974,488
1515244624975,495
1515244624976,508
1515244624977,511
1515244624978,518
1515244624979,518
1515244624979,511
1515244624980,506
1515244624981,504
1515244624982,503
1515244624983,510
1515244625003,518
1515244625007,526
1515244625008,530
1515244625009,532
1515244625010,527
1515244625011,526
1515244625012,519
1515244625012,518
1515244625013,519
1515244625014,526
1515244625015,532
1515244625016,538
1515244625019,542
1515244625020,543
1515244625021,542
1515244625022,535
1515244625023,532
1515244625024,532
1515244625025,530
1515244625026,535
1515244625027,542
1515244625028,548
1515244625028,550
1515244625029,548
1515244625030,546
1515244625031,538
1515244625032,534
1515244625032,532
1515244625033,534
1515244625034,535
1515244625052,542
1515244625054,548
1515244625055,550
1515244625056,550
1515244625057,550
1515244625058,546
1515244625059,540
1515244625060,535
1515244625061,534
1515244625062,535
1515244625063,538
1515244625064,540
1515244625065,540
1515244625066,540
1515244625067,538
1515244625068,534
1515244625069,532
1515244625070,534
1515244625070,540
1515244625071,543
1515244625072,551
1515244625073,558
1515244625074,559
1515244625075,559
1515244625098,558
1515244625099,550
1515244625100,548
1515244625101,542
1515244625102,542
1515244625106,543
1515244625109,550
1515244625111,556
1515244625112,556
1515244625113,556
1515244625113,550
1515244625114,540
1515244625115,527
1515244625116,520
1515244625117,516
1515244625118,510
1515244625118,508
1515244625119,506
1515244625120,508
1515244625121,503
1515244625122,495
1515244625122,490
1515244625123,482
1515244625144,476
1515244625145,470
1515244625146,468
1515244625147,463
1515244625148,463
1515244625148,462
1515244625149,458
1515244625150,454
1515244625151,450
1515244625152,446
1515244625154,444
1515244625155,446
1515244625156,452
1515244625157,454
1515244625158,458
1515244625159,462
1515244625159,464
1515244625160,462
1515244625161,460
1515244625162,455
1515244625163,454
1515244625165,452
1515244625185,454
1515244625186,454
1515244625187,455
1515244625188,460
1515244625189,458
1515244625190,458
1515244625191,456
1515244625192,454
1515244625193,455
1515244625194,460
1515244625195,463
1515244625196,470
1515244625197,476
1515244625198,478
1515244625199,478
1515244625200,474
1515244625201,470
1515244625202,464
1515244625202,462
1515244625247,463
1515244625277,470
1515244625279,474
1515244625281,479
1515244625283,482
1515244625285,479
1515244625287,474
1515244625289,464
1515244625291,455
1515244625293,452
1515244625295,452
1515244625299,454
1515244625301,455
1515244625302,458
1515244625304,458
1515244625305,455
1515244625306,454
1515244625308,450
1515244625309,446
1515244625311,446
1515244625312,448
1515244625313,450
1515244625314,454
1515244625316,460
1515244625317,458
1515244625318,458
1515244625320,456
1515244625321,450
1515244625322,444
1515244625324,442
1515244625325,442
1515244625326,443
1515244625327,446
1515244625329,450
1515244625330,452
1515244625331,450
1515244625333,448
1515244625334,446
1515244625336,442
1515244625337,442
1515244625339,439
1515244625340,442
1515244625341,442
1515244625342,444
1515244625342,444
1515244625343,442
1515244625345,440
1515244625366,434
1515244625370,431
1515244625371,431
1515244625372,431
1515244625373,438
1515244625374,444
1515244625375,444
1515244625376,446
1515244625377,446
1515244625377,444
1515244625378,439
1515244625379,438
1515244625380,438
1515244625381,439
1515244625382,446
1515244625383,450
1515244625384,450
1515244625385,452
1515244625385,450
1515244625386,448
1515244625387,444
1515244625388,438
1515244625389,436
1515244625390,436
1515244625391,438
1515244625392,438
1515244625392,439
1515244625393,440
1515244625394,439
1515244625395,438
1515244625396,436
1515244625397,434
1515244625398,438
1515244625398,442
1515244625400,452
1515244625400,455
1515244625401,460
1515244625402,462
1515244625403,460
1515244625404,455
1515244625404,454
1515244625405,452
1515244625406,456
1515244625407,462
1515244625407,468
1515244625408,468
1515244625428,470
1515244625430,468
1515244625431,468
1515244625432,466
1515244625433,463
1515244625434,466
1515244625435,470
1515244625436,474
1515244625437,479
1515244625438,486
1515244625439,490
1515244625440,494
1515244625441,492
1515244625442,482
1515244625443,468
1515244625446,455
1515244625447,450
1515244625448,446
1515244625449,448
1515244625450,452
1515244625451,460
1515244625452,462
1515244625452,462
1515244625453,455
1515244625454,450
1515244625455,444
1515244625456,442
1515244625456,438
1515244625457,438
1515244625458,439
1515244625459,442
1515244625482,444
1515244625485,439
1515244625486,436
1515244625487,431
1515244625488,430
1515244625489,431
1515244625490,439
1515244625491,450
1515244625492,462
1515244625493,471
1515244625494,478
1515244625495,478
1515244625496,471
1515244625497,462
1515244625500,454
1515244625501,450
1515244625502,450
1515244625503,454
1515244625504,460
1515244625504,463
1515244625505,466
1515244625506,468
1515244625507,462
1515244625508,455
1515244625508,456
1515244625509,462
1515244625529,476
1515244625530,495
1515244625531,524
1515244625532,554
1515244625533,594
1515244625534,644
1515244625535,690
1515244625536,743
1515244625537,806
1515244625538,870
1515244625539,934
1515244625540,990
1515244625541,999
1515244625542,1004
1515244625543,999
1515244625544,998
1515244625545,994
1515244625546,962
1515244625546,890
1515244625547,798
1515244625548,702
1515244625549,612
1515244625550,535
1515244625570,490
1515244625572,463
1515244625573,460
1515244625574,470
1515244625574,484
1515244625575,495
1515244625576,508
1515244625577,511
1515244625579,516
1515244625583,511
1515244625587,506
1515244625588,502
1515244625589,494
1515244625589,486
1515244625590,484
1515244625591,488
1515244625592,494
1515244625658,500
1515244625660,506
1515244625662,510
1515244625694,510
1515244625698,503
1515244625700,495
1515244625702,486
1515244625704,479
1515244625705,474
1515244625708,474
1515244625710,478
1515244625712,484
1515244625715,494
1515244625717,502
1515244625719,510
1515244625720,514
1515244625722,514
1515244625723,511
1515244625725,508
1515244625726,502
1515244625727,495
1515244625728,495
1515244625729,495
1515244625731,500
1515244625732,504
1515244625733,503
1515244625735,506
1515244625736,506
1515244625737,506
1515244625740,510
1515244625742,514
1515244625743,522
1515244625744,526
1515244625746,527
1515244625747,526
1515244625748,522
1515244625749,518
1515244625751,511
1515244625752,510
1515244625753,510
1515244625754,511
1515244625756,514
1515244625757,518
1515244625758,522
1515244625759,524
1515244625761,519
1515244625762,514
1515244625763,508
1515244625765,504
1515244625766,506
1515244625767,512
1515244625769,519
1515244625770,527
1515244625771,540
1515244625772,542
1515244625773,543
1515244625775,546
1515244625776,548
1515244625777,548
1515244625779,552
1515244625782,552
1515244625783,550
1515244625784,548
1515244625785,543
1515244625786,540
1515244625787,534
1515244625787,530
1515244625808,527
1515244625811,530
1515244625812,535
1515244625813,548
1515244625814,556
1515244625815,566
1515244625816,578
1515244625817,586
1515244625818,590
1515244625819,586
1515244625820,578
1515244625821,568
1515244625822,554
1515244625823,542
1515244625824,535
1515244625825,534
1515244625826,534
1515244625827,534
1515244625828,535
1515244625829,536
1515244625829,535
1515244625830,536
1515244625831,532
1515244625832,527
1515244625833,526
1515244625834,524
1515244625835,516
1515244625836,510
1515244625837,502
1515244625838,494
1515244625839,488
1515244625839,486
1515244625840,486
1515244625841,490
1515244625842,495
1515244625843,504
1515244625844,506
1515244625845,503
1515244625846,500
1515244625847,494
1515244625847,486
1515244625848,484
1515244625849,484
1515244625850,487
1515244625851,490
1515244625852,494
1515244625853,492
1515244625854,487
1515244625854,480
1515244625855,470
1515244625856,464
1515244625857,460
1515244625858,462
1515244625859,470
1515244625859,484
1515244625860,495
1515244625861,510
1515244625881,516
1515244625883,514
1515244625884,508
1515244625885,494
1515244625886,486
1515244625887,486
1515244625888,494
1515244625889,504
1515244625890,511
1515244625891,512
1515244625892,502
1515244625893,486
1515244625894,463
1515244625895,446
1515244625896,432
1515244625897,428
1515244625898,436
1515244625899,446
1515244625900,458
1515244625901,472
1515244625901,478
1515244625902,478
1515244625903,476
1515244625904,470
1515244625905,470
1515244625906,471
1515244625907,478
1515244625908,486
1515244625910,492
1515244625911,495
1515244625912,496
1515244625913,490
1515244625914,484
1515244625915,479
1515244625915,482
1515244625916,487
1515244625940,498
1515244625942,506
1515244625943,508
1515244625944,508
1515244625944,506
1515244625946,500
1515244625946,494
1515244625948,490
1515244625951,486
1515244625953,484
1515244625954,482
1515244625955,480
1515244625956,478
1515244625957,476
1515244625958,470
1515244625959,468
1515244625960,468
1515244625960,470
1515244625961,476
1515244625962,486
1515244625963,494
1515244625964,500
1515244625964,502
1515244625965,494
1515244625966,482
1515244625967,468
1515244625968,458
1515244625968,456
1515244625969,458
1515244625989,464
1515244625991,470
1515244625992,472
1515244625993,466
1515244625994,458
1515244625994,448
1515244625995,444
1515244625996,442
1515244625997,448
1515244625998,458
1515244626000,466
1515244626001,470
1515244626002,466
1515244626003,458
1515244626004,444
1515244626008,430
1515244626010,420
1515244626011,414
1515244626012,420
1515244626013,431
1515244626014,450
1515244626014,466
1515244626015,476
1515244626016,478
1515244626039,474
1515244626040,466
1515244626041,462
1515244626042,468
1515244626043,478
1515244626044,500
1515244626045,516
1515244626046,519
1515244626047,512
1515244626048,494
1515244626048,468
1515244626050,446
1515244626052,430
1515244626053,423
1515244626054,428
1515244626057,438
1515244626058,452
1515244626059,462
1515244626060,470
1515244626061,471
1515244626062,476
1515244626063,478
1515244626063,482
1515244626064,486
1515244626085,486
1515244626086,482
1515244626087,476
1515244626088,472
1515244626089,470
1515244626090,470
1515244626091,474
1515244626092,476
1515244626093,475
1515244626095,470
1515244626096,462
1515244626097,455
1515244626098,456
1515244626099,462
1515244626100,474
1515244626101,490
1515244626102,510
1515244626103,527
1515244626104,542
1515244626105,548
1515244626106,546
1515244626106,535
1515244626109,518
1515244626134,504
1515244626135,492
1515244626136,486
1515244626137,484
1515244626138,482
1515244626139,478
1515244626140,471
1515244626141,463
1515244626143,458
1515244626144,452
1515244626145,450
1515244626146,450
1515244626147,450
1515244626148,454
1515244626149,462
1515244626150,468
1515244626150,476
1515244626151,482
1515244626152,486
1515244626153,490
1515244626154,490
1515244626155,490
1515244626155,487
1515244626156,482
1515244626157,476
1515244626178,468
1515244626179,454
1515244626180,439
1515244626181,430
1515244626182,428
1515244626183,435
1515244626184,450
1515244626184,463
1515244626185,476
1515244626186,486
1515244626187,486
1515244626188,478
1515244626192,468
1515244626193,450
1515244626194,442
1515244626195,444
1515244626196,450
1515244626196,462
1515244626197,472
1515244626198,474
1515244626199,482
1515244626219,502
1515244626224,540
1515244626225,588
1515244626226,644
1515244626227,714
1515244626228,794
1515244626229,879
1515244626230,966
1515244626231,999
1515244626232,1002
1515244626233,1002
1515244626234,1002
1515244626235,999
1515244626236,999
1515244626237,990
1515244626237,934
1515244626238,840
1515244626239,718
1515244626240,599
1515244626241,495
1515244626241,422
1515244626264,382
1515244626265,370
1515244626268,378
1515244626270,398
1515244626271,426
1515244626272,452
1515244626273,470
1515244626274,478
1515244626275,480
1515244626276,478
1515244626277,476
1515244626278,471
1515244626279,470
1515244626280,471
1515244626281,479
1515244626282,490
1515244626283,498
1515244626284,502
1515244626285,494
1515244626285,480
1515244626286,462
1515244626287,446
1515244626288,436
1515244626289,434
1515244626313,439
1515244626314,444
1515244626315,446
1515244626316,444
1515244626317,440
1515244626318,431
1515244626319,426
1515244626322,424
1515244626323,422
1515244626324,423
1515244626326,430
1515244626327,436
1515244626328,446
1515244626330,452
1515244626331,455
1515244626332,460
1515244626333,462
1515244626334,462
1515244626335,462
1515244626335,462
1515244626336,462
1515244626337,462
1515244626338,462
1515244626339,463
1515244626359,468
1515244626360,470
1515244626361,471
1515244626362,474
1515244626363,476
1515244626364,476
1515244626365,476
1515244626366,474
1515244626367,476
1515244626368,471
1515244626369,472
1515244626370,471
1515244626371,474
1515244626372,482
1515244626373,495
1515244626374,510
1515244626375,518
1515244626376,524
1515244626377,519
1515244626377,510
1515244626378,500
1515244626379,486
1515244626380,474
1515244626400,458
1515244626402,448
1515244626403,439
1515244626403,438
1515244626404,442
1515244626405,446
1515244626406,450
1515244626407,456
1515244626408,462
1515244626410,470
1515244626411,474
1515244626412,482
1515244626413,490
1515244626414,494
1515244626415,494
1515244626415,486
1515244626416,474
1515244626417,463
1515244626418,460
1515244626419,454
1515244626440,456
1515244626442,458
1515244626445,462
1515244626446,466
1515244626447,471
1515244626448,476
1515244626449,478
1515244626450,478
1515244626451,476
1515244626452,468
1515244626454,462
1515244626455,454
1515244626455,450
1515244626456,446
1515244626457,442
1515244626460,436
1515244626461,430
1515244626462,426
1515244626463,420
1515244626463,418
1515244626485,414
1515244626487,412
1515244626488,410
1515244626488,410
1515244626489,412
1515244626490,414
1515244626491,420
1515244626492,423
1515244626493,430
1515244626494,434
1515244626495,436
1515244626496,430
1515244626497,422
1515244626498,412
1515244626499,402
1515244626500,398
1515244626501,398
1515244626502,399
1515244626503,406
1515244626503,412
1515244626504,415
1515244626505,420
1515244626525,422
1515244626529,426
1515244626530,430
1515244626531,436
1515244626532,442
1515244626533,444
1515244626534,443
1515244626535,442
1515244626536,442
1515244626537,442
1515244626538,446
1515244626539,450
1515244626540,456
1515244626541,460
1515244626542,460
1515244626542,462
1515244626543,462
1515244626544,462
1515244626545,462
1515244626546,463
1515244626546,470
1515244626547,478
1515244626567,486
1515244626568,495
1515244626569,502
1515244626570,502
1515244626571,495
1515244626572,486
1515244626573,476
1515244626574,468
1515244626575,463
1515244626576,468
1515244626577,472
1515244626578,478
1515244626579,482
1515244626580,486
1515244626581,492
1515244626582,494
1515244626583,498
1515244626585,502
1515244626587,502
1515244626649,502
1515244626652,504
1515244626681,503
1515244626684,504
1515244626686,500
1515244626688,500
1515244626692,494
1515244626694,494
1515244626696,495
1515244626699,495
1515244626701,495
1515244626702,498
1515244626704,498
1515244626707,500
1515244626709,504
1515244626711,506
1515244626712,511
1515244626714,518
1515244626715,522
1515244626716,524
1515244626718,522
1515244626719,518
1515244626721,511
1515244626723,508
1515244626724,502
1515244626725,498
1515244626727,500
1515244626728,500
1515244626729,500
1515244626730,504
1515244626731,510
1515244626733,511
1515244626734,516
1515244626736,518
1515244626737,514
1515244626738,512
1515244626739,510
1515244626741,510
1515244626742,510
1515244626743,512
1515244626745,514
1515244626746,518
1515244626747,519
1515244626748,519
1515244626751,519
1515244626752,519
1515244626754,518
1515244626755,518
1515244626756,516
1515244626757,520
1515244626759,519
1515244626760,526
1515244626761,526
1515244626762,532
1515244626763,526
1515244626763,526
1515244626764,522
1515244626765,522
1515244626766,524
1515244626786,526
1515244626789,527
1515244626791,530
1515244626792,530
1515244626792,532
1515244626793,527
1515244626794,527
1515244626795,527
1515244626796,532
1515244626797,534
1515244626798,538
1515244626799,542
1515244626800,546
1515244626801,548
1515244626802,550
1515244626803,552
1515244626804,550
1515244626805,550
1515244626806,551
1515244626806,550
1515244626807,550
1515244626808,546
1515244626809,543
1515244626810,542
1515244626811,542
1515244626812,538
1515244626813,536
1515244626813,532
1515244626814,527
1515244626815,526
1515244626816,522
1515244626817,519
1515244626818,520
1515244626819,516
1515244626820,511
1515244626820,510
1515244626821,508
1515244626822,502
1515244626823,504
1515244626824,503
1515244626825,510
1515244626826,514
1515244626827,519
1515244626828,526
1515244626829,532
1515244626829,527
1515244626830,526
1515244626831,519
1515244626832,514
1515244626833,510
1515244626833,506
1515244626834,504
1515244626835,502
1515244626855,500
1515244626858,494
1515244626859,486
1515244626860,474
1515244626861,463
1515244626862,456
1515244626863,446
1515244626864,442
1515244626865,439
1515244626866,442
1515244626867,450
1515244626868,462
1515244626869,474
1515244626870,490
1515244626871,510
1515244626872,535
1515244626873,574
1515244626874,622
1515244626875,679
1515244626876,748
1515244626877,814
1515244626877,886
1515244626878,951
1515244626879,998
1515244626880,999
1515244626881,1004
1515244626882,999
1515244626883,1004
1515244626883,998
1515244626884,984
1515244626885,918
1515244626886,823
1515244626887,718
1515244626887,618
1515244626908,538
1515244626910,488
1515244626911,463
1515244626912,466
1515244626913,486
1515244626914,511
1515244626915,535
1515244626916,551
1515244626917,558
1515244626918,556
1515244626920,546
1515244626923,540
1515244626924,526
1515244626925,518
1515244626926,511
1515244626927,506
1515244626929,504
1515244626931,502
1515244626931,500
1515244626932,496
1515244626933,494
1515244626934,490
1515244626935,492
1515244626936,490
1515244626937,490
1515244626937,494
1515244626938,494
1515244626957,496
1515244626962,495
1515244626963,494
1515244626964,494
1515244626965,492
1515244626966,494
1515244626967,495
1515244626968,504
1515244626969,506
1515244626970,510
1515244626971,510
1515244626972,508
1515244626973,503
1515244626974,502
1515244626975,500
1515244626976,500
1515244626977,502
1515244626977,506
1515244626978,510
1515244626979,510
1515244626980,508
1515244626981,504
1515244626981,500
1515244627005,495
1515244627006,494
1515244627007,494
1515244627008,495
1515244627009,504
1515244627010,506
1515244627011,510
1515244627012,510
1515244627013,508
1515244627014,508
1515244627015,502
1515244627016,502
1515244627017,504
1515244627018,506
1515244627019,510
1515244627020,514
1515244627021,518
1515244627022,518
1515244627022,518
1515244627023,520
1515244627024,518
1515244627025,514
1515244627026,516
1515244627026,518
1515244627027,522
1515244627047,526
1515244627052,527
1515244627053,526
1515244627054,522
1515244627055,518
1515244627056,512
1515244627057,510
1515244627058,510
1515244627062,511
1515244627063,520
1515244627064,522
1515244627065,522
1515244627067,522
1515244627068,518
1515244627069,514
1515244627070,510
1515244627071,506
1515244627072,508
1515244627073,510
1515244627073,516
1515244627096,524
1515244627097,526
1515244627098,527
1515244627098,527
1515244627099,526
1515244627100,526
1515244627101,522
1515244627102,520
1515244627103,522
1515244627104,524
1515244627105,526
1515244627106,524
1515244627107,524
1515244627108,516
1515244627109,510
1515244627110,502
1515244627111,495
1515244627112,494
1515244627113,494
1515244627113,494
1515244627114,494
1515244627115,496
1515244627157,494
1515244627159,492
1515244627162,486
1515244627163,482
1515244627191,478
1515244627194,476
1515244627195,478
1515244627197,482
1515244627199,486
1515244627200,486
1515244627202,488
1515244627204,484
1515244627206,478
1515244627207,474
1515244627209,470
1515244627211,470
1515244627212,476
1515244627213,478
1515244627215,482
1515244627216,486
1515244627219,486
1515244627220,482
1515244627221,478
1515244627222,470
1515244627224,466
1515244627225,466
1515244627226,468
1515244627228,471
1515244627229,478
1515244627230,482
1515244627231,484
1515244627233,479
1515244627234,476
1515244627236,470
1515244627237,466
1515244627238,466
1515244627240,470
1515244627241,474
1515244627244,478
1515244627245,482
1515244627246,484
1515244627248,479
1515244627249,476
1515244627250,470
1515244627251,463
1515244627253,463
1515244627254,468
1515244627255,470
1515244627258,474
1515244627259,478
1515244627282,478
1515244627284,476
1515244627285,470
1515244627286,464
1515244627287,460
1515244627288,458
1515244627289,462
1515244627290,468
1515244627291,470
1515244627292,470
1515244627293,470
1515244627294,468
1515244627295,462
1515244627296,455
1515244627297,452
1515244627298,452
1515244627298,454
1515244627300,458
1515244627301,462
1515244627301,463
1515244627302,463
1515244627303,462
1515244627304,455
1515244627305,452
1515244627306,448
1515244627307,448
1515244627308,450
1515244627308,454
1515244627309,458
1515244627310,460
1515244627311,460
1515244627312,458
1515244627313,452
1515244627314,446
1515244627315,444
1515244627315,442
1515244627316,444
1515244627317,448
1515244627318,452
1515244627319,454
1515244627320,452
1515244627320,448
1515244627321,444
1515244627322,436
1515244627323,436
1515244627324,431
1515244627343,438
1515244627344,442
1515244627345,448
1515244627346,452
1515244627347,454
1515244627348,452
1515244627349,450
1515244627350,450
1515244627351,450
1515244627352,452
1515244627353,455
1515244627354,460
1515244627355,459
1515244627356,460
1515244627357,458
1515244627360,458
1515244627363,458
1515244627364,454
1515244627365,454
1515244627366,452
1515244627367,456
1515244627368,455
1515244627369,458
1515244627370,458
1515244627371,460
1515244627371,454
1515244627372,450
1515244627373,446
1515244627374,442
1515244627378,442
1515244627400,446
1515244627401,450
1515244627402,458
1515244627403,462
1515244627404,463
1515244627405,466
1515244627406,466
1515244627407,463
1515244627408,458
1515244627409,454
1515244627410,452
1515244627411,446
1515244627412,442
1515244627413,442
1515244627414,442
1515244627415,444
1515244627418,444
1515244627419,446
1515244627420,448
1515244627421,452
1515244627422,460
1515244627423,462
1515244627423,468
1515244627424,471
1515244627425,476
1515244627426,476
1515244627427,474
1515244627427,476
1515244627428,482
1515244627429,487
1515244627449,495
1515244627450,508
1515244627451,518
1515244627452,524
1515244627453,526
1515244627454,520
1515244627455,508
1515244627456,495
1515244627457,486
1515244627458,484
1515244627459,488
1515244627460,492
1515244627463,498
1515244627465,503
1515244627466,503
1515244627466,500
1515244627467,494
1515244627468,490
1515244627469,486
1515244627470,487
1515244627470,494
1515244627471,502
1515244627472,508
1515244627495,512
1515244627497,511
1515244627502,510
1515244627504,506
1515244627505,500
1515244627506,494
1515244627507,492
1515244627508,494
1515244627509,495
1515244627509,498
1515244627510,500
1515244627511,502
1515244627512,502
1515244627513,503
1515244627514,506
1515244627517,506
1515244627518,508
1515244627519,511
1515244627519,516
1515244627520,518
1515244627521,511
1515244627522,500
1515244627523,486
1515244627523,470
1515244627544,462
1515244627545,462
1515244627546,472
1515244627547,494
1515244627548,522
1515244627549,556
1515244627550,596
1515244627551,638
1515244627552,686
1515244627553,734
1515244627554,783
1515244627555,839
1515244627556,902
1515244627557,966
1515244627558,1004
1515244627559,1004
1515244627560,1004
1515244627562,999
1515244627563,998
1515244627564,991
1515244627565,950
1515244627566,876
1515244627568,775
1515244627589,677
1515244627591,593
1515244627592,532
1515244627593,489
1515244627594,471
1515244627595,471
1515244627596,479
1515244627597,492
1515244627598,503
1515244627600,515
1515244627601,524
1515244627602,528
1515244627603,529
1515244627604,528
1515244627605,521
1515244627606,512
1515244627607,502
1515244627608,490
1515244627609,483
1515244627648,486
1515244627650,489
1515244627650,497
1515244627651,508
1515244627671,510
1515244627675,513
1515244627675,510
1515244627676,505
1515244627677,500
1515244627679,496
1515244627680,493
1515244627681,499
1515244627681,508
1515244627683,513
1515244627684,517
1515244627685,519
1515244627686,520
1515244627689,516
1515244627690,513
1515244627691,512
1515244627692,516
1515244627693,524
1515244627694,528
1515244627695,534
1515244627696,535
1515244627697,535
1515244627698,534
1515244627699,528
1515244627700,523
1515244627701,522
1515244627701,524
1515244627702,527
1515244627703,538
1515244627704,546
1515244627705,551
1515244627706,552
1515244627707,552
1515244627708,551
1515244627708,545
1515244627709,545
1515244627710,548
1515244627711,553
1515244627712,564
1515244627713,569
1515244627714,576
1515244627714,579
1515244627735,576
1515244627737,568
1515244627738,558
1515244627741,559
1515244627743,567
1515244627744,574
1515244627745,584
1515244627746,593
1515244627747,604
1515244627748,611
1515244627749,610
1515244627750,602
1515244627751,589
1515244627752,574
1515244627753,565
1515244627754,559
1515244627755,554
1515244627756,546
1515244627757,541
1515244627758,540
1515244627759,535
1515244627760,534
1515244627761,535
1515244627762,543
1515244627762,554
1515244627763,566
1515244627764,574
1515244627765,578
1515244627766,576
1515244627766,566
1515244627767,556
1515244627768,542
1515244627790,530
1515244627794,527
1515244627795,532
1515244627796,542
1515244627796,556
1515244627798,566
1515244627799,574
1515244627800,582
1515244627801,582
1515244627802,580
1515244627803,574
1515244627804,570
1515244627805,570
1515244627805,574
1515244627806,578
1515244627807,578
1515244627808,574
1515244627809,562
1515244627810,550
1515244627811,538
1515244627812,527
1515244627812,524
1515244627813,526
1515244627814,526
1515244627815,526
1515244627837,522
1515244627838,514
1515244627839,506
1515244627840,494
1515244627841,486
1515244627842,480
1515244627843,482
1515244627844,494
1515244627845,502
1515244627846,510
1515244627847,511
1515244627848,510
1515244627849,500
1515244627850,492
1515244627851,478
1515244627852,470
1515244627853,470
1515244627854,471
1515244627854,478
1515244627855,488
1515244627856,494
1515244627857,500
1515244627857,503
1515244627858,508
1515244627879,510
1515244627881,507
1515244627882,503
1515244627883,500
1515244627884,495
1515244627884,495
1515244627885,498
1515244627886,500
1515244627887,502
1515244627888,510
1515244627890,518
1515244627891,527
1515244627894,538
1515244627895,543
1515244627896,542
1515244627897,534
1515244627898,518
1515244627899,506
1515244627962,496
1515244627964,486
1515244627966,476
1515244627968,474
1515244627969,476
1515244628003,484
1515244628007,494
1515244628009,506
1515244628011,518
1515244628012,526
1515244628015,530
1515244628017,530
1515244628019,527
1515244628021,522
1515244628023,516
1515244628024,516
1515244628026,516
1515244628029,519
1515244628030,526
1515244628032,536
1515244628033,538
1515244628035,538
1515244628036,534
1515244628039,524
1515244628042,508
1515244628043,495
1515244628045,492
1515244628046,490
1515244628047,490
1515244628048,496
1515244628050,498
1515244628051,498
1515244628052,495
1515244628053,494
1515244628055,496
1515244628056,498
1515244628057,504
1515244628059,508
1515244628060,511
1515244628061,516
1515244628063,518
1515244628064,520
1515244628065,518
1515244628066,514
1515244628068,510
1515244628069,506
1515244628070,504
1515244628071,502
1515244628073,498
1515244628074,495
1515244628075,494
1515244628077,492
1515244628078,494
1515244628080,495
1515244628081,503
1515244628081,511
1515244628082,526
1515244628083,534
1515244628084,538
1515244628085,540
1515244628085,527
1515244628086,511
1515244628087,495
1515244628088,482
1515244628089,471
1515244628089,472
1515244628111,482
1515244628114,494
1515244628115,508
1515244628116,516
1515244628117,522
1515244628118,524
1515244628119,520
1515244628120,512
1515244628121,502
1515244628121,494
1515244628123,494
1515244628124,492
1515244628125,490
1515244628126,487
1515244628127,484
1515244628128,479
1515244628129,478
1515244628130,476
1515244628131,478
1515244628132,478
1515244628133,482
1515244628134,484
1515244628135,482
1515244628136,482
1515244628136,479
1515244628140,478
1515244628141,476
1515244628142,478
1515244628143,482
1515244628144,487
1515244628145,495
1515244628145,510
1515244628146,516
1515244628147,518
1515244628148,511
1515244628149,510
1515244628150,506
1515244628151,502
1515244628151,498
1515244628152,494
1515244628153,490
1515244628154,482
1515244628155,478
1515244628156,474
1515244628157,472
1515244628158,470
1515244628159,466
1515244628160,463
1515244628160,462
1515244628161,462
1515244628162,464
1515244628163,464
1515244628164,463
1515244628184,463
1515244628185,462
1515244628186,458
1515244628187,454
1515244628188,450
1515244628189,452
1515244628190,455
1515244628191,464
1515244628192,474
1515244628193,479
1515244628194,484
1515244628195,479
1515244628196,472
1515244628197,462
1515244628198,450
1515244628199,444
1515244628201,442
1515244628203,444
1515244628204,450
1515244628204,458
1515244628205,463
1515244628206,468
1515244628207,466
1515244628208,462
1515244628209,454
1515244628210,442
1515244628211,431
1515244628212,430
1515244628215,430
1515244628216,434
1515244628217,444
1515244628217,450
1515244628218,462
1515244628219,476
1515244628220,500
1515244628220,527
1515244628221,574
1515244628222,630
1515244628223,692
1515244628245,759
1515244628246,834
1515244628247,902
1515244628248,966
1515244628249,998
1515244628252,998
1515244628253,1004
1515244628254,998
1515244628259,990
1515244628260,960
1515244628261,887
1515244628262,790
1515244628263,682
1515244628264,578
1515244628265,490
1515244628266,430
1515244628269,399
1515244628270,391
1515244628271,399
1515244628272,422
1515244628273,444
1515244628274,462
1515244628275,471
1515244628275,470
1515244628276,463
1515244628277,452
1515244628278,438
1515244628279,428
1515244628279,422
1515244628299,418
1515244628301,418
1515244628302,418
1515244628303,414
1515244628304,408
1515244628304,404
1515244628306,399
1515244628307,399
1515244628308,404
1515244628309,410
1515244628310,418
1515244628311,423
1515244628312,428
1515244628315,428
1515244628315,426
1515244628316,422
1515244628317,422
1515244628318,422
1515244628319,426
1515244628320,431
1515244628321,438
1515244628322,444
1515244628323,442
1515244628323,444
1515244628324,435
1515244628325,428
1515244628326,422
1515244628327,416
1515244628350,414
1515244628352,414
1515244628353,415
1515244628354,415
1515244628355,414
1515244628356,410
1515244628357,406
1515244628358,399
1515244628359,398
1515244628360,399
1515244628361,399
1515244628362,403
1515244628363,406
1515244628364,408
1515244628365,406
1515244628366,402
1515244628367,398
1515244628367,391
1515244628368,390
1515244628369,388
1515244628370,392
1515244628371,399
1515244628371,412
1515244628392,422
1515244628394,430
1515244628394,436
1515244628395,444
1515244628396,444
1515244628397,442
1515244628398,444
1515244628399,440
1515244628400,439
1515244628401,444
1515244628402,444
1515244628403,448
1515244628404,452
1515244628405,456
1515244628407,455
1515244628407,458
1515244628408,458
1515244628409,462
1515244628410,468
1515244628411,470
1515244628411,476
1515244628412,474
1515244628416,474
1515244628437,470
1515244628438,470
1515244628439,468
1515244628440,468
1515244628441,468
1515244628442,470
1515244628443,471
1515244628444,478
1515244628445,482
1515244628446,486
1515244628447,487
1515244628448,492
1515244628449,494
1515244628450,496
1515244628451,495
1515244628451,500
1515244628452,498
1515244628453,502
1515244628454,502
1515244628520,500
1515244628523,498
1515244628525,495
1515244628549,490
1515244628551,487
1515244628553,486
1515244628555,486
1515244628557,486
1515244628559,486
1515244628561,484
1515244628565,484
1515244628566,486
1515244628568,484
1515244628569,484
1515244628570,479
1515244628572,476
1515244628573,474
1515244628575,474
1515244628576,474
1515244628577,472
1515244628579,470
1515244628580,470
1515244628581,470
1515244628583,471
1515244628584,474
1515244628585,471
1515244628586,471
1515244628588,471
1515244628589,471
1515244628590,471
1515244628592,470
1515244628593,468
1515244628594,466
1515244628595,468
1515244628597,466
1515244628598,470
1515244628600,476
1515244628602,478
1515244628603,482
1515244628604,484
1515244628605,484
1515244628606,484
1515244628607,482
1515244628608,482
1515244628609,480
1515244628609,482
1515244628610,484
1515244628611,486
1515244628612,492
1515244628615,494
1515244628616,494
1515244628617,494
1515244628618,494
1515244628619,494
1515244628619,494
1515244628620,494
1515244628621,495
1515244628624,498
1515244628625,502
1515244628626,500
1515244628648,498
1515244628649,495
1515244628650,494
1515244628651,492
1515244628652,492
1515244628653,494
1515244628654,500
1515244628655,502
1515244628656,506
1515244628656,510
1515244628657,510
1515244628658,510
1515244628659,508
1515244628660,506
1515244628661,504
1515244628662,502
1515244628663,503
1515244628664,507
1515244628665,510
1515244628666,516
1515244628667,516
1515244628668,520
1515244628669,518
1515244628670,520
1515244628670,518
1515244628671,518
1515244628672,516
1515244628673,516
1515244628674,516
1515244628675,514
1515244628676,516
1515244628677,511
1515244628678,511
1515244628678,511
1515244628679,511
1515244628680,511
1515244628681,514
1515244628682,516
1515244628683,518
1515244628684,516
1515244628685,511
1515244628685,510
1515244628686,506
1515244628687,503
1515244628688,504
1515244628689,506
1515244628689,510
1515244628690,514
1515244628691,518
1515244628692,524
1515244628712,522
1515244628714,522
1515244628715,520
1515244628716,518
1515244628716,516
1515244628717,516
1515244628718,518
1515244628722,518
1515244628726,520
1515244628727,518
1515244628728,520
1515244628729,519
1515244628730,524
1515244628731,522
1515244628732,522
1515244628733,522
1515244628734,524
1515244628735,522
1515244628736,524
1515244628737,523
1515244628737,526
1515244628738,527
1515244628739,530
1515244628740,532
1515244628741,530
1515244628742,532
1515244628743,530
1515244628743,532
1515244628744,527
1515244628745,527
1515244628746,526
1515244628746,524
1515244628769,524
1515244628771,526
1515244628772,527
1515244628773,534
1515244628773,538
1515244628774,542
1515244628775,548
1515244628776,550
1515244628777,550
1515244628778,552
1515244628779,548
1515244628780,543
1515244628784,538
1515244628785,527
1515244628786,524
1515244628787,519
1515244628788,520
1515244628789,522
1515244628790,522
1515244628790,526
1515244628791,526
1515244628792,527
1515244628793,532
1515244628794,527
1515244628794,526
1515244628795,524
1515244628816,522
1515244628817,522
1515244628818,526
1515244628819,526
1515244628820,532
1515244628821,527
1515244628821,530
1515244628825,530
1515244628826,532
1515244628827,534
1515244628828,534
1515244628829,535
1515244628830,538
1515244628831,540
1515244628832,542
1515244628833,542
1515244628834,542
1515244628834,542
1515244628835,542
1515244628836,542
1515244628837,542
1515244628838,542
1515244628839,538
1515244628859,532
1515244628860,524
1515244628861,518
1515244628862,516
1515244628865,516
1515244628867,522
1515244628868,534
1515244628869,551
1515244628870,574
1515244628871,598
1515244628872,630
1515244628873,676
1515244628874,726
1515244628875,780
1515244628876,842
1515244628877,910
1515244628878,974
1515244628879,1004
1515244628879,1004
1515244628940,999
1515244628944,1004
1515244628945,1004
1515244628974,1004
1515244628976,994
1515244628978,951
1515244628980,870
1515244628982,766
1515244628984,655
1515244628986,566
1515244628989,504
1515244628991,470
1515244628993,463
1515244628995,474
1515244628997,492
1515244628998,510
1515244629000,519
1515244629002,527
1515244629003,532
1515244629005,526
1515244629006,518
1515244629007,510
1515244629008,500
1515244629010,494
1515244629011,487
1515244629012,484
1515244629013,479
1515244629015,478
1515244629017,476
1515244629019,474
1515244629020,474
1515244629022,470
1515244629023,472
1515244629024,470
1515244629026,470
1515244629027,470
1515244629029,468
1515244629030,468
1515244629031,470
1515244629033,470
1515244629034,471
1515244629036,474
1515244629037,476
1515244629038,478
1515244629040,479
1515244629044,482
1515244629045,484
1515244629046,482
1515244629047,484
1515244629048,482
1515244629048,482
1515244629049,482
1515244629050,482
1515244629051,484
1515244629052,486
1515244629052,486
1515244629053,486
1515244629056,487
1515244629057,487
1515244629057,492
1515244629058,492
1515244629079,494
1515244629081,494
1515244629081,494
1515244629082,494
1515244629083,494
1515244629084,494
1515244629085,496
1515244629086,495
1515244629087,500
1515244629088,502
1515244629089,502
1515244629090,508
1515244629091,506
1515244629091,508
1515244629092,510
1515244629093,510
1515244629094,511
1515244629095,511
1515244629096,516
1515244629097,518
1515244629098,520
1515244629099,518
1515244629100,520
1515244629101,519
1515244629102,520
1515244629103,519
1515244629104,522
1515244629104,522
1515244629105,526
1515244629106,526
1515244629107,527
1515244629108,532
1515244629109,532
1515244629110,534
1515244629111,532
1515244629111,532
1515244629112,530
1515244629113,532
1515244629114,532
1515244629115,536
1515244629116,535
1515244629117,540
1515244629118,538
1515244629119,540
1515244629120,542
1515244629120,543
1515244629121,546
1515244629122,548
1515244629123,548
1515244629124,548
1515244629125,542
1515244629125,536
1515244629126,527
1515244629127,522
1515244629147,518
1515244629151,516
1515244629152,508
1515244629153,502
1515244629154,502
1515244629155,502
1515244629156,508
1515244629157,511
1515244629159,518
1515244629160,518
1515244629161,511
1515244629162,506
1515244629163,500
1515244629164,494
1515244629164,492
1515244629165,486
1515244629166,486
1515244629167,484
1515244629168,479
1515244629169,474
1515244629170,468
1515244629171,463
1515244629172,462
1515244629173,460
1515244629174,460
1515244629175,460
1515244629176,462
1515244629176,464
1515244629177,463
1515244629178,463
1515244629181,463
1515244629183,468
1515244629183,466
1515244629184,472
1515244629207,471
1515244629208,476
1515244629209,476
1515244629212,471
1515244629213,472
1515244629214,468
1515244629215,463
1515244629217,463
1515244629218,462
1515244629219,462
1515244629220,462
1515244629221,462
1515244629223,463
1515244629225,463
1515244629226,467
1515244629226,468
1515244629227,468
1515244629228,468
1515244629229,470
1515244629230,470
1515244629231,470
1515244629232,470
1515244629232,471
1515244629233,474
1515244629234,471
1515244629235,471
1515244629236,471
1515244629236,471
1515244629237,476
1515244629238,474
1515244629257,471
1515244629261,476
1515244629263,471
1515244629263,471
1515244629265,470
1515244629266,470
1515244629267,470
1515244629268,470
1515244629269,470
1515244629270,470
1515244629271,470
1515244629271,470
1515244629273,472
1515244629273,470
1515244629274,470
1515244629275,470
1515244629276,467
1515244629277,466
1515244629278,467
1515244629279,470
1515244629280,470
1515244629280,476
1515244629281,474
1515244629282,476
1515244629283,476
1515244629305,474
1515244629306,476
1515244629307,471
1515244629308,471
1515244629309,471
1515244629310,470
1515244629310,471
1515244629311,474
1515244629312,474
1515244629314,474
1515244629315,471
1515244629316,472
1515244629317,470
1515244629318,470
1515244629319,470
1515244629320,470
1515244629320,471
1515244629321,474
1515244629322,476
1515244629323,478
1515244629324,478
1515244629324,476
1515244629325,474
1515244629326,474
1515244629346,474
1515244629347,474
1515244629350,474
1515244629351,474
1515244629353,474
1515244629354,474
1515244629355,476
1515244629356,474
1515244629357,474
1515244629358,474
1515244629361,472
1515244629362,471
1515244629363,472
1515244629364,471
1515244629365,474
1515244629365,474
1515244629366,474
1515244629367,474
1515244629389,471
1515244629391,472
1515244629392,470
1515244629393,470
1515244629394,470
1515244629394,471
1515244629395,474
1515244629397,478
1515244629398,478
1515244629399,482
1515244629399,482
1515244629400,484
1515244629401,482
1515244629403,482
1515244629403,482
1515244629404,479
1515244629405,478
1515244629406,478
1515244629407,479
1515244629407,484
1515244629408,490
1515244629409,494
1515244629460,500
1515244629464,500
1515244629494,502
1515244629497,502
1515244629499,504
1515244629502,502
1515244629504,498
1515244629506,492
1515244629508,486
1515244629510,482
1515244629513,478
1515244629516,478
1515244629519,474
1515244629520,474
1515244629522,474
1515244629523,470
1515244629525,466
1515244629526,463
1515244629528,460
1515244629529,458
1515244629530,458
1515244629532,456
1515244629533,455
1515244629535,460
1515244629537,460
1515244629538,462
1515244629540,464
1515244629541,463
1515244629542,466
1515244629544,468
1515244629545,467
1515244629548,470
1515244629550,470
1515244629551,470
1515244629552,468
1515244629553,463
1515244629554,462
1515244629556,458
1515244629557,460
1515244629558,462
1515244629560,468
1515244629563,468
1515244629564,468
1515244629565,463
1515244629566,458
1515244629567,448
1515244629567,431
1515244629568,424
1515244629569,418
1515244629570,422
1515244629571,431
1515244629571,448
1515244629572,468
1515244629573,490
1515244629574,518
1515244629594,554
1515244629596,600
1515244629597,647
1515244629597,708
1515244629598,766
1515244629600,836
1515244629600,898
1515244629601,960
1515244629602,996
1515244629603,998
1515244629604,998
1515244629605,990
1515244629606,970
1515244629607,919
1515244629608,846
1515244629609,751
1515244629610,654
1515244629611,559
1515244629612,490
1515244629613,442
1515244629614,418
1515244629615,412
1515244629616,420
1515244629616,436
1515244629617,454
1515244629618,468
1515244629622,476
1515244629623,476
1515244629624,476
1515244629624,470
1515244629625,463
1515244629626,458
1515244629627,454
1515244629628,452
1515244629629,450
1515244629630,450
1515244629631,451
1515244629632,454
1515244629633,454
1515244629634,458
1515244629634,458
1515244629635,455
1515244629636,454
1515244629639,454
1515244629640,454
1515244629641,454
1515244629641,455
1515244629642,458
1515244629643,460
1515244629644,462
1515244629664,462
1515244629672,462
1515244629673,462
1515244629674,462
1515244629675,462
1515244629676,462
1515244629678,463
1515244629679,466
1515244629680,472
1515244629680,471
1515244629681,474
1515244629682,474
1515244629683,474
1515244629684,476
1515244629685,474
1515244629686,474
1515244629687,476
1515244629688,478
1515244629688,478
1515244629689,479
1515244629690,479
1515244629691,478
1515244629692,478
1515244629693,479
1515244629694,482
1515244629695,482
1515244629697,486
1515244629699,488
1515244629699,490
1515244629700,494
1515244629701,494
1515244629702,494
1515244629703,494
1515244629726,494
1515244629727,496
1515244629728,495
1515244629729,500
1515244629730,502
1515244629730,503
1515244629731,508
1515244629732,510
1515244629733,510
1515244629734,510
1515244629735,510
1515244629736,510
1515244629737,510
1515244629739,510
1515244629740,511
1515244629740,511
1515244629741,514
1515244629742,514
1515244629743,514
1515244629744,516
1515244629745,516
1515244629746,518
1515244629747,518
1515244629748,524
1515244629749,524
1515244629749,526
1515244629750,527
1515244629751,527
1515244629752,527
1515244629753,532
1515244629753,527
1515244629774,527
1515244629778,527
1515244629779,532
1515244629780,527
1515244629781,527
1515244629782,530
1515244629783,527
1515244629784,526
1515244629785,524
1515244629786,518
1515244629787,516
1515244629788,510
1515244629789,510
1515244629790,506
1515244629791,506
1515244629793,503
1515244629795,502
1515244629796,495
1515244629796,494
1515244629797,487
1515244629798,484
1515244629799,479
1515244629800,478
1515244629800,478
1515244629822,478
1515244629824,478
1515244629825,478
1515244629826,478
1515244629827,476
1515244629828,476
1515244629829,474
1515244629830,474
1515244629830,471
1515244629831,470
1515244629832,470
1515244629833,470
1515244629834,470
1515244629838,468
1515244629839,468
1515244629840,468
1515244629841,466
1515244629841,466
1515244629842,468
1515244629843,466
1515244629844,468
1515244629845,470
1515244629846,470
1515244629846,468
1515244629867,468
1515244629868,468
1515244629869,468
1515244629870,468
1515244629871,470
1515244629872,472
1515244629873,470
1515244629874,471
1515244629881,476
1515244629882,474
1515244629883,474
1515244629884,475
1515244629885,478
1515244629886,478
1515244629887,478
1515244629888,479
1515244629889,482
1515244629889,484
1515244629890,484
1515244629891,483
1515244629892,482
1515244629893,484
1515244629893,482
1515244629915,482
1515244629916,482
1515244629917,484
1515244629918,486
1515244629919,487
1515244629920,487
1515244629921,488
1515244629921,486
1515244629922,486
1515244629923,484
1515244629924,482
1515244629925,482
1515244629926,482
1515244629927,483
1515244629928,486
1515244629929,486
1515244629930,488
1515244629931,486
1515244629932,488
1515244629933,486
1515244629979,486
1515244629982,486
1515244630005,487
1515244630008,490
1515244630010,490
1515244630011,490
1515244630012,488
1515244630013,486
1515244630014,486
1515244630015,484
1515244630016,486
1515244630017,488
1515244630018,487
1515244630019,492
1515244630020,492
1515244630022,494
1515244630024,492
1515244630024,490
1515244630025,490
1515244630026,490
1515244630027,490
1515244630028,490
1515244630029,490
1515244630029,492
1515244630030,494
1515244630031,494
1515244630032,492
1515244630033,490
1515244630033,490
1515244630034,487
1515244630035,488
1515244630036,490
1515244630037,490
1515244630038,494
1515244630038,494
1515244630039,494
1515244630040,492
1515244630041,492
1515244630042,487
1515244630043,487
1515244630043,487
1515244630044,492
1515244630045,490
1515244630065,494
1515244630066,494
1515244630067,494
1515244630068,494
1515244630069,490
1515244630070,490
1515244630071,492
1515244630072,494
1515244630073,494
1515244630253,496
1515244630256,495
1515244630257,500
1515244630258,504
1515244630259,503
1515244630260,503
1515244630261,506
1515244630262,508
1515244630263,508
1515244630264,510
1515244630264,510
1515244630265,510
1515244630266,510
1515244630267,508
1515244630268,508
1515244630269,510
1515244630270,516
1515244630271,522
1515244630272,532
1515244630273,534
1515244630274,540
1515244630275,542
1515244630276,542
1515244630276,540
1515244630277,535
1515244630303,530
1515244630304,526
1515244630305,519
1515244630306,518
1515244630307,514
1515244630308,511
1515244630309,511
1515244630310,511
1515244630311,510
1515244633794,479
1515244633797,479
1515244633799,478
1515244633801,479
1515244633804,482
1515244633806,482
1515244633809,484
1515244633810,484
1515244633846,484
1515244633847,482
1515244633849,482
1515244633850,482
1515244633852,484
1515244633854,482
1515244633856,484
1515244633858,486
1515244633861,486
1515244633862,486
1515244633864,484
1515244633866,484
1515244633868,484
1515244633870,482
1515244633902,482
1515244633906,482
1515244633907,482
1515244633909,482
1515244633910,484
1515244633912,484
1515244633913,482
1515244633915,482
1515244633917,482
1515244633918,484
1515244633920,482
1515244633922,482
1515244633924,484
1515244633926,482
1515244633928,482
1515244633929,482
1515244633931,482
1515244633933,482
1515244633934,482
1515244633936,482
1515244633938,482
1515244633939,484
1515244633941,484
1515244633942,486
1515244633944,484
1515244633974,484
1515244633976,482
1515244633978,482
1515244633980,484
1515244633980,484
1515244633981,484
1515244633982,484
1515244633983,486
1515244633984,486
1515244633985,486
1515244633986,486
1515244633986,486
1515244633987,486
1515244633988,486
1515244633989,486
1515244633990,486
1515244633991,486
1515244633992,486
1515244633993,486
1515244633994,488
1515244633995,487
1515244633996,488
1515244633999,486
1515244634000,488
1515244634001,486
1515244634002,488
1515244634006,488
1515244634007,487
1515244634008,488
1515244634009,487
1515244634010,490
1515244634013,490
1515244634014,490
1515244634015,490
1515244634016,490
1515244634017,492
1515244634018,490
1515244634019,490
1515244634020,492
1515244634020,494
1515244634021,496
1515244634022,498
1515244634023,502
1515244634024,502
1515244634024,506
1515244634025,506
1515244634026,506
1515244634027,506
1515244634028,503
1515244634029,504
1515244634054,502
1515244634056,503
1515244634057,508
1515244634058,516
1515244634059,519
1515244634060,526
1515244634061,527
1515244634062,532
1515244634063,534
1515244634064,534
1515244634064,530
1515244634065,526
1515244634066,524
1515244634067,516
1515244634068,510
1515244634069,508
1515244634070,506
1515244634071,503
1515244634072,503
1515244634073,504
1515244634073,502
1515244634074,500
1515244634075,494
1515244634076,492
1515244634077,490
1515244634078,486
1515244634079,486
1515244634080,484
1515244634081,484
1515244634082,484
1515244634083,486
1515244634084,486
1515244634085,484
1515244634086,484
1515244634087,484
1515244634088,484
1515244634142,486
1515244634145,486
1515244634184,486
1515244634187,486
1515244634189,488
1515244634191,486
1515244634192,486
1515244634194,486
1515244634196,486
1515244634199,486
1515244634202,486
1515244634204,486
1515244634207,482
1515244634209,474
1515244634212,466
1515244634214,459
1515244634217,455
1515244634219,458
1515244634221,463
1515244634223,478
1515244634225,495
1515244634227,520
1515244634229,548
1515244634231,583
1515244634233,628
1515244634238,680
1515244634239,738
1515244634242,798
1515244634245,862
1515244634247,926
1515244634249,982
1515244634251,998
1515244634254,998
1515244634255,998
1515244634257,994
1515244634259,975
1515244634261,930
1515244634263,855
1515244634265,762
1515244634267,663
1515244634269,578
1515244634271,508
1515244634273,462
1515244634274,442
1515244634276,442
1515244634278,454
1515244634280,470
1515244634281,488
1515244634285,500
1515244634286,503
1515244634287,504
1515244634288,500
1515244634289,494
1515244634290,490
1515244634291,484
1515244634292,479
1515244634293,476
1515244634293,474
1515244634294,471
1515244634295,471
1515244634296,471
1515244634297,471
1515244634298,474
1515244634299,474
1515244634300,476
1515244634301,474
1515244634302,474
1515244634303,474
1515244634304,474
1515244634333,474
1515244634334,476
1515244634335,476
1515244634336,478
1515244634337,478
1515244634338,479
1515244634339,479
1515244634340,478
1515244634340,479
1515244634341,482
1515244634342,484
1515244634346,486
1515244634347,486
1515244634348,488
1515244634349,487
1515244634349,490
1515244634350,490
1515244634351,490
1515244634352,490
1515244634353,492
1515244634354,494
1515244634355,494
1515244634356,496
1515244634357,495
1515244634358,500
1515244634359,500
1515244634360,500
1515244634361,500
1515244634362,500
1515244634363,502
1515244634364,502
1515244634364,502
1515244634366,503
1515244634367,506
1515244634367,508
1515244634368,508
1515244634369,506
1515244634370,508
1515244634371,508
1515244634372,510
1515244634373,510
1515244634373,511
1515244634374,511
1515244634375,514
1515244634376,516
1515244634377,518
1515244634378,518
1515244634379,518
1515244634380,520
1515244634381,520
1515244634382,524
1515244634383,522
1515244634384,524
1515244634385,526
1515244634386,526
1515244634387,524
1515244634388,524
1515244634389,522
1515244634390,522
1515244634391,524
1515244634392,526
1515244634393,526
1515244634393,526
1515244634394,532
1515244634395,527
1515244634396,527
1515244634397,527
1515244634398,532
1515244634399,527
1515244634399,527
1515244634400,530
1515244634401,530
1515244634402,532
1515244634403,532
1515244634403,530
1515244634404,532
1515244634432,527
1515244634436,526
1515244634437,526
1515244634438,522
1515244634439,519
1515244634440,520
1515244634441,516
1515244634442,511
1515244634445,510
1515244634446,506
1515244634447,503
1515244634448,502
1515244634450,498
1515244634450,496
1515244634452,494
1515244634453,490
1515244634454,488
1515244634455,486
1515244634456,486
1515244634457,486
1515244634458,484
1515244634459,484
1515244634460,482
1515244634461,482
1515244634462,479
1515244634464,479
1515244634465,479
1515244634466,484
1515244634467,482
1515244634468,479
1515244634469,478
1515244634470,478
1515244634471,478
1515244634475,478
1515244634476,478
1515244634477,478
1515244634478,478
1515244634479,479
1515244634480,479
1515244634481,482
1515244634482,484
1515244634482,482
1515244634486,482
1515244634487,482
1515244634488,486
1515244634489,486
1515244634490,486
1515244634490,487
1515244634491,487
1515244634514,487
1515244634516,487
1515244634517,488
1515244634518,486
1515244634519,488
1515244634520,487
1515244634521,488
1515244634521,487
1515244634523,487
1515244634523,492
1515244634524,490
1515244634525,490
1515244634526,490
1515244634527,490
1515244634528,490
1515244634529,492
1515244634530,490
1515244634531,490
1515244634532,492
1515244634533,490
1515244634534,492
1515244634535,490
1515244634536,492
1515244634537,490
1515244634538,490
1515244634539,490
1515244634540,490
1515244634541,490
1515244634542,490
1515244634545,492
1515244634547,492
1515244634547,490
1515244634548,490
1515244634549,490
1515244634550,490
1515244634551,490
1515244634595,490
1515244634597,490
1515244634598,490
1515244634599,492
1515244634600,490
1515244634629,490
1515244634631,490
1515244634632,488
1515244634634,488
1515244634636,487
1515244634638,490
1515244634640,490
1515244634642,490
1515244634645,492
1515244634647,490
1515244634650,490
1515244634653,487
1515244634654,487
1515244634655,487
1515244634656,487
1515244634658,488
1515244634659,492
1515244634660,490
1515244634662,492
1515244634664,490
1515244634665,492
1515244634666,488
1515244634668,486
1515244634670,486
1515244634673,486
1515244634674,488
1515244634676,488
1515244634677,490
1515244634678,492
1515244634680,490
1515244634681,490
1515244634682,490
1515244634684,487
1515244634685,487
1515244634686,490
1515244634688,490
1515244634689,490
1515244634690,492
1515244634691,494
1515244634693,492
1515244634694,492
1515244634695,490
1515244634697,490
1515244634700,490
1515244634701,492
1515244634702,494
1515244634703,494
1515244634704,494
1515244634705,494
1515244634705,494
1515244634706,491
1515244634707,494
1515244634708,492
1515244634709,494
1515244634709,494
1515244634710,495
1515244634732,500
1515244634733,504
1515244634734,508
1515244634735,510
1515244634736,510
1515244634737,510
1515244634737,509
1515244634738,510
1515244634739,506
1515244634740,508
1515244634741,507
1515244634742,510
1515244634745,516
1515244634747,524
1515244634748,527
1515244634749,532
1515244634750,534
1515244634751,536
1515244634752,534
1515244634753,536
1515244634753,534
1515244634754,532
1515244634755,526
1515244634756,520
1515244634757,516
1515244634758,511
1515244634759,510
1515244634760,508
1515244634760,506
1515244634761,506
1515244634762,503
1515244634763,504
1515244634764,498
1515244634765,495
1515244634766,494
1515244634767,490
1515244634768,486
1515244634769,486
1515244634769,486
1515244634770,486
1515244634772,486
1515244634773,486
1515244634774,488
1515244634774,486
1515244634775,486
1515244634776,484
1515244634778,484
1515244634781,484
1515244634783,484
1515244634783,486
1515244634784,486
1515244634805,488
1515244634807,487
1515244634808,487
1515244634809,487
1515244634809,486
1515244634810,488
1515244634811,484
1515244634812,484
1515244634813,476
1515244634814,466
1515244634818,460
1515244634820,460
1515244634821,462
1515244634822,470
1515244634823,484
1515244634824,502
1515244634825,524
1515244634826,556
1515244634827,591
1515244634828,638
1515244634829,694
1515244634830,756
1515244634831,815
1515244634832,879
1515244634833,942
1515244634837,990
1515244634838,998
1515244634839,998
1515244634840,998
1515244634840,994
1515244634841,974
1515244634842,926
1515244634848,846
1515244634849,748
1515244634850,650
1515244634850,566
1515244634851,498
1515244634852,458
1515244634875,444
1515244634876,446
1515244634878,462
1515244634879,474
1515244634880,492
1515244634880,500
1515244634881,502
1515244634882,500
1515244634883,495
1515244634887,490
1515244634889,486
1515244634890,482
1515244634890,478
1515244634891,478
1515244634892,476
1515244634893,474
1515244634894,476
1515244634895,474
1515244634896,476
1515244634897,476
1515244634898,474
1515244634899,474
1515244634900,474
1515244634901,476
1515244634901,476
1515244634902,476
1515244634903,474
1515244634904,476
1515244634905,476
1515244634906,478
1515244634910,478
1515244634911,482
1515244634911,482
1515244634912,482
1515244634913,482
1515244634934,482
1515244634935,484
1515244634936,482
1515244634937,486
1515244634939,484
1515244634940,486
1515244634941,486
1515244634942,488
1515244634945,492
1515244634947,492
1515244634948,490
1515244634949,492
1515244634950,490
1515244634952,492
1515244634953,494
1515244634957,494
1515244634958,496
1515244634959,495
1515244634960,500
1515244634961,500
1515244634963,500
1515244634965,502
1515244634966,502
1515244634966,504
1515244634967,503
1515244634968,506
1515244634969,506
1515244634970,508
1515244634993,510
1515244634995,510
1515244634996,510
1515244634997,510
1515244634997,511
1515244634999,511
1515244634999,511
1515244635000,516
1515244635001,516
1515244635002,518
1515244635003,518
1515244635004,518
1515244635005,518
1515244635006,520
1515244635007,518
1515244635008,518
1515244635009,518
1515244635010,518
1515244635011,520
1515244635012,519
1515244635013,524
1515244635014,519
1515244635014,519
1515244635015,518
1515244635016,519
1515244635017,520
1515244635018,519
1515244635018,522
1515244635019,524
1515244635023,524
1515244635045,526
1515244635049,526
1515244635050,526
1515244635051,526
1515244635051,526
1515244635052,526
1515244635053,527
1515244635054,527
1515244635055,527
1515244635056,527
1515244635057,526
1515244635058,522
1515244635059,520
1515244635060,516
1515244635061,511
1515244635064,510
1515244635065,506
1515244635066,502
1515244635067,502
1515244635067,500
1515244635068,498
1515244635069,495
1515244635070,494
1515244635071,492
1515244635071,490
1515244635072,486
1515244635093,486
1515244635095,484
1515244635096,482
1515244635097,479
1515244635098,478
1515244635099,478
1515244635100,475
1515244635101,476
1515244635102,474
1515244635103,474
1515244635107,476
1515244635109,478
1515244635109,478
1515244635110,478
1515244635111,478
1515244635112,478
1515244635113,478
1515244635114,476
1515244635115,478
1515244635116,478
1515244635117,478
1515244635117,478
1515244635118,478
1515244635119,478
1515244635139,479
1515244635140,482
1515244635141,482
1515244635142,482
1515244635143,482
1515244635144,484
1515244635145,486
1515244635146,486
1515244635150,488
1515244635151,486
1515244635152,488
1515244635153,486
1515244635154,486
1515244635155,486
1515244635156,488
1515244635157,487
1515244635157,487
1515244635158,487
1515244635159,488
1515244635160,487
1515244635161,486
1515244635161,486
1515244635162,486
1515244635163,486
1515244635164,486
1515244635185,486
1515244635186,488
1515244635187,488
1515244635188,486
1515244635189,486
1515244635189,487
1515244635190,486
1515244635191,488
1515244635193,486
1515244635194,486
1515244635195,486
1515244635196,486
1515244635197,488
1515244635198,486
1515244635199,488
1515244635200,486
1515244635263,486
1515244635266,486
1515244635268,486
1515244635270,486
1515244635274,487
1515244635276,488
1515244635307,487
1515244635310,487
1515244635312,487
1515244635314,490
1515244635316,487
1515244635317,487
1515244635319,486
1515244635321,486
1515244635324,486
1515244635328,486
1515244635330,486
1515244635331,486
1515244635333,486
1515244635334,487
1515244635336,488
1515244635337,486
1515244635339,486
1515244635340,488
1515244635341,486
1515244635343,486
1515244635345,486
1515244635346,488
1515244635348,486
1515244635349,488
1515244635351,486
1515244635352,486
1515244635354,484
1515244635355,484
1515244635357,484
1515244635358,486
1515244635360,486
1515244635361,486
1515244635363,488
1515244635366,487
1515244635367,487
1515244635368,487
1515244635369,486
1515244635371,486
1515244635372,487
1515244635373,487
1515244635375,490
1515244635376,490
1515244635378,492
1515244635379,490
1515244635380,490
1515244635382,488
1515244635383,488
1515244635385,487
1515244635386,487
1515244635387,488
1515244635389,487
1515244635390,490
1515244635391,492
1515244635393,492
1515244635394,492
1515244635395,490
1515244635397,492
1515244635398,494
1515244635400,495
1515244635400,502
1515244635421,504
1515244635422,508
1515244635423,508
1515244635424,510
1515244635425,508
1515244635426,503
1515244635427,502
1515244635428,500
1515244635429,502
1515244635430,503
1515244635431,510
1515244635432,518
1515244635433,524
1515244635434,527
1515244635435,532
1515244635436,527
1515244635437,527
1515244635438,527
1515244635439,526
1515244635440,522
1515244635441,518
1515244635442,514
1515244635443,511
1515244635444,510
1515244635444,506
1515244635445,503
1515244635446,502
1515244635447,500
1515244635448,500
1515244635449,495
1515244635450,494
1515244635451,490
1515244635452,488
1515244635453,486
1515244635454,484
1515244635454,482
1515244635455,484
1515244635456,480
1515244635457,479
1515244635458,484
1515244635459,482
1515244635460,482
1515244635461,484
1515244635461,482
1515244635462,482
1515244635467,482
1515244635468,482
1515244635469,482
1515244635470,482
1515244635471,483
1515244635471,484
1515244635473,484
1515244635473,486
1515244635474,486
1515244635475,482
1515244635476,479
1515244635477,474
1515244635477,466
1515244635497,460
1515244635498,454
1515244635503,454
1515244635504,460
1515244635505,470
1515244635507,486
1515244635507,503
1515244635509,530
1515244635510,568
1515244635511,610
1515244635511,662
1515244635512,724
1515244635513,782
1515244635514,846
1515244635515,916
1515244635516,974
1515244635517,998
1515244635518,1004
1515244635519,998
1515244635520,998
1515244635520,998
1515244635521,975
1515244635522,918
1515244635523,826
1515244635524,722
1515244635525,620
1515244635526,534
1515244635527,472
1515244635528,434
1515244635529,422
1515244635530,426
1515244635530,442
1515244635531,462
1515244635532,479
1515244635533,492
1515244635534,495
1515244635534,494
1515244635556,487
1515244635557,484
1515244635558,478
1515244635559,471
1515244635560,470
1515244635561,468
1515244635562,468
1515244635563,466
1515244635567,468
1515244635568,468
1515244635569,468
1515244635570,466
1515244635571,468
1515244635572,466
1515244635573,468
1515244635574,470
1515244635575,470
1515244635576,471
1515244635576,471
1515244635577,471
1515244635578,471
1515244635579,471
1515244635580,472
1515244635581,474
1515244635582,474
1515244635582,476
1515244635583,478
1515244635584,478
1515244635585,478
1515244635586,478
1515244635586,478
1515244635607,478
1515244635608,478
1515244635609,482
1515244635610,484
1515244635611,482
1515244635612,484
1515244635613,488
1515244635614,487
1515244635615,490
1515244635617,490
1515244635617,492
1515244635619,492
1515244635620,492
1515244635621,494
1515244635622,494
1515244635626,494
1515244635627,494
1515244635628,494
1515244635629,496
1515244635630,495
1515244635631,495
1515244635633,495
